    Energy      s          Int(s)         px           py           pz           p          Int(p)       dx2-y2        dz2          dyz          dxz          dxy           d          Int(d)       total      Int(total) 
  -30.0000  7.06745E-05  5.19448E-07  8.03920E-05  7.89154E-05  8.14705E-05  2.40778E-04  1.76968E-06  1.33392E-04  1.33861E-04  1.35370E-04  1.37641E-04  1.35205E-04  6.75468E-04  4.96460E-06  9.86921E-04  7.25373E-06
  -29.9000  7.10576E-05  1.04171E-06  8.03843E-05  7.88817E-05  8.14809E-05  2.40747E-04  3.53914E-06  1.34288E-04  1.34764E-04  1.36301E-04  1.38613E-04  1.36134E-04  6.80101E-04  9.96325E-06  9.91905E-04  1.45441E-05
  -29.8000  7.14472E-05  1.56684E-06  8.03804E-05  7.88512E-05  8.14956E-05  2.40727E-04  5.30845E-06  1.35193E-04  1.35678E-04  1.37243E-04  1.39596E-04  1.37074E-04  6.84785E-04  1.49963E-05  9.96959E-04  2.18716E-05
  -29.7000  7.18434E-05  2.09488E-06  8.03803E-05  7.88239E-05  8.15145E-05  2.40719E-04  7.07770E-06  1.36109E-04  1.36602E-04  1.38196E-04  1.40591E-04  1.38025E-04  6.89522E-04  2.00642E-05  1.00208E-03  2.92368E-05
  -29.6000  7.22463E-05  2.62588E-06  8.03843E-05  7.87999E-05  8.15379E-05  2.40722E-04  8.84698E-06  1.37034E-04  1.37535E-04  1.39159E-04  1.41598E-04  1.38987E-04  6.94313E-04  2.51673E-05  1.00728E-03  3.66402E-05
  -29.5000  7.26563E-05  3.15989E-06  8.03922E-05  7.87792E-05  8.15657E-05  2.40737E-04  1.06164E-05  1.37969E-04  1.38479E-04  1.40133E-04  1.42617E-04  1.39960E-04  6.99158E-04  3.03060E-05  1.01255E-03  4.40823E-05
  -29.4000  7.30735E-05  3.69697E-06  8.04041E-05  7.87618E-05  8.15980E-05  2.40764E-04  1.23859E-05  1.38915E-04  1.39434E-04  1.41119E-04  1.43648E-04  1.40944E-04  7.04060E-04  3.54808E-05  1.01790E-03  5.15637E-05
  -29.3000  7.34980E-05  4.23717E-06  8.04202E-05  7.87477E-05  8.16350E-05  2.40803E-04  1.41558E-05  1.39871E-04  1.40399E-04  1.42116E-04  1.44692E-04  1.41939E-04  7.09018E-04  4.06920E-05  1.02332E-03  5.90850E-05
  -29.2000  7.39300E-05  4.78055E-06  8.04405E-05  7.87371E-05  8.16766E-05  2.40854E-04  1.59261E-05  1.40837E-04  1.41375E-04  1.43125E-04  1.45749E-04  1.42946E-04  7.14033E-04  4.59400E-05  1.02882E-03  6.66466E-05
  -29.1000  7.43699E-05  5.32716E-06  8.04650E-05  7.87299E-05  8.17230E-05  2.40918E-04  1.76968E-05  1.41814E-04  1.42362E-04  1.44145E-04  1.46819E-04  1.43965E-04  7.19106E-04  5.12253E-05  1.03439E-03  7.42493E-05
  -29.0000  7.48177E-05  5.87706E-06  8.04938E-05  7.87262E-05  8.17743E-05  2.40994E-04  1.94680E-05  1.42802E-04  1.43360E-04  1.45178E-04  1.47903E-04  1.44996E-04  7.24239E-04  5.65484E-05  1.04005E-03  8.18935E-05
  -28.9000  7.52738E-05  6.43031E-06  8.05271E-05  7.87261E-05  8.18305E-05  2.41084E-04  2.12400E-05  1.43801E-04  1.44369E-04  1.46223E-04  1.49000E-04  1.46039E-04  7.29432E-04  6.19096E-05  1.04579E-03  8.95799E-05
  -28.8000  7.57384E-05  6.98698E-06  8.05648E-05  7.87295E-05  8.18919E-05  2.41186E-04  2.30127E-05  1.44812E-04  1.45390E-04  1.47280E-04  1.50110E-04  1.47095E-04  7.34686E-04  6.73095E-05  1.05161E-03  9.73091E-05
  -28.7000  7.62117E-05  7.54712E-06  8.06071E-05  7.87366E-05  8.19584E-05  2.41302E-04  2.47862E-05  1.45833E-04  1.46422E-04  1.48350E-04  1.51235E-04  1.48163E-04  7.40003E-04  7.27484E-05  1.05752E-03  1.05082E-04
  -28.6000  7.66941E-05  8.11081E-06  8.06541E-05  7.87474E-05  8.20301E-05  2.41432E-04  2.65607E-05  1.46867E-04  1.47466E-04  1.49432E-04  1.52375E-04  1.49244E-04  7.45384E-04  7.82269E-05  1.06351E-03  1.12898E-04
  -28.5000  7.71858E-05  8.67812E-06  8.07058E-05  7.87620E-05  8.21074E-05  2.41575E-04  2.83362E-05  1.47911E-04  1.48522E-04  1.50528E-04  1.53528E-04  1.50338E-04  7.50828E-04  8.37453E-05  1.06959E-03  1.20760E-04
  -28.4000  7.76871E-05  9.24911E-06  8.07624E-05  7.87804E-05  8.21901E-05  2.41733E-04  3.01129E-05  1.48968E-04  1.49591E-04  1.51637E-04  1.54697E-04  1.51446E-04  7.56339E-04  8.93043E-05  1.07576E-03  1.28666E-04
  -28.3000  7.81982E-05  9.82385E-06  8.08240E-05  7.88026E-05  8.22785E-05  2.41905E-04  3.18909E-05  1.50037E-04  1.50671E-04  1.52760E-04  1.55881E-04  1.52567E-04  7.61916E-04  9.49043E-05  1.08202E-03  1.36619E-04
  -28.2000  7.87194E-05  1.04024E-05  8.08905E-05  7.88287E-05  8.23726E-05  2.42092E-04  3.36703E-05  1.51118E-04  1.51765E-04  1.53896E-04  1.57081E-04  1.53702E-04  7.67562E-04  1.00546E-04  1.08837E-03  1.44618E-04
  -28.1000  7.92512E-05  1.09849E-05  8.09622E-05  7.88589E-05  8.24725E-05  2.42294E-04  3.54511E-05  1.52212E-04  1.52871E-04  1.55047E-04  1.58297E-04  1.54851E-04  7.73277E-04  1.06229E-04  1.09482E-03  1.52665E-04
  -28.0000  7.97938E-05  1.15714E-05  8.10392E-05  7.88932E-05  8.25785E-05  2.42511E-04  3.72335E-05  1.53318E-04  1.53990E-04  1.56212E-04  1.59528E-04  1.56014E-04  7.79063E-04  1.11955E-04  1.10137E-03  1.60760E-04
  -27.9000  8.03475E-05  1.21619E-05  8.11215E-05  7.89315E-05  8.26907E-05  2.42744E-04  3.90176E-05  1.54437E-04  1.55122E-04  1.57391E-04  1.60777E-04  1.57193E-04  7.84921E-04  1.17724E-04  1.10801E-03  1.68904E-04
  -27.8000  8.09128E-05  1.27566E-05  8.12093E-05  7.89741E-05  8.28092E-05  2.42993E-04  4.08036E-05  1.55570E-04  1.56268E-04  1.58586E-04  1.62042E-04  1.58386E-04  7.90852E-04  1.23537E-04  1.11476E-03  1.77097E-04
  -27.7000  8.14900E-05  1.33556E-05  8.13028E-05  7.90211E-05  8.29341E-05  2.43258E-04  4.25915E-05  1.56715E-04  1.57428E-04  1.59795E-04  1.63324E-04  1.59594E-04  7.96857E-04  1.29394E-04  1.12160E-03  1.85341E-04
  -27.6000  8.20796E-05  1.39588E-05  8.14021E-05  7.90724E-05  8.30658E-05  2.43540E-04  4.43815E-05  1.57874E-04  1.58601E-04  1.61020E-04  1.64624E-04  1.60818E-04  8.02938E-04  1.35295E-04  1.12856E-03  1.93636E-04
  -27.5000  8.26820E-05  1.45665E-05  8.15073E-05  7.91282E-05  8.32043E-05  2.43840E-04  4.61737E-05  1.59047E-04  1.59789E-04  1.62261E-04  1.65942E-04  1.62057E-04  8.09096E-04  1.41242E-04  1.13562E-03  2.01982E-04
  -27.4000  8.32977E-05  1.51788E-05  8.16187E-05  7.91886E-05  8.33499E-05  2.44157E-04  4.79682E-05  1.60234E-04  1.60991E-04  1.63517E-04  1.67279E-04  1.63313E-04  8.15334E-04  1.47235E-04  1.14279E-03  2.10382E-04
  -27.3000  8.39271E-05  1.57956E-05  8.17363E-05  7.92537E-05  8.35027E-05  2.44493E-04  4.97652E-05  1.61435E-04  1.62208E-04  1.64790E-04  1.68634E-04  1.64585E-04  8.21652E-04  1.53274E-04  1.15007E-03  2.18834E-04
  -27.2000  8.45707E-05  1.64172E-05  8.18603E-05  7.93236E-05  8.36629E-05  2.44847E-04  5.15648E-05  1.62651E-04  1.63439E-04  1.66080E-04  1.70009E-04  1.65874E-04  8.28053E-04  1.59360E-04  1.15747E-03  2.27342E-04
  -27.1000  8.52294E-05  1.70436E-05  8.19910E-05  7.93985E-05  8.38310E-05  2.45221E-04  5.33671E-05  1.63881E-04  1.64686E-04  1.67387E-04  1.71403E-04  1.67180E-04  8.34537E-04  1.65493E-04  1.16499E-03  2.35904E-04
  -27.0000  8.59034E-05  1.76750E-05  8.21286E-05  7.94784E-05  8.40070E-05  2.45614E-04  5.51724E-05  1.65126E-04  1.65948E-04  1.68711E-04  1.72817E-04  1.68503E-04  8.41107E-04  1.71675E-04  1.17262E-03  2.44523E-04
  -26.9000  8.65931E-05  1.83115E-05  8.22731E-05  7.95635E-05  8.41911E-05  2.46028E-04  5.69806E-05  1.66386E-04  1.67226E-04  1.70053E-04  1.74252E-04  1.69845E-04  8.47763E-04  1.77906E-04  1.18038E-03  2.53198E-04
  -26.8000  8.72993E-05  1.89531E-05  8.24248E-05  7.96538E-05  8.43836E-05  2.46462E-04  5.87921E-05  1.67662E-04  1.68520E-04  1.71413E-04  1.75708E-04  1.71204E-04  8.54508E-04  1.84187E-04  1.18827E-03  2.61932E-04
  -26.7000  8.80226E-05  1.96001E-05  8.25839E-05  7.97496E-05  8.45847E-05  2.46918E-04  6.06069E-05  1.68953E-04  1.69830E-04  1.72791E-04  1.77186E-04  1.72583E-04  8.61343E-04  1.90518E-04  1.19628E-03  2.70725E-04
  -26.6000  8.87638E-05  2.02525E-05  8.27508E-05  7.98509E-05  8.47948E-05  2.47396E-04  6.24252E-05  1.70261E-04  1.71157E-04  1.74188E-04  1.78686E-04  1.73980E-04  8.68272E-04  1.96899E-04  1.20443E-03  2.79577E-04
  -26.5000  8.95235E-05  2.09104E-05  8.29255E-05  7.99580E-05  8.50142E-05  2.47898E-04  6.42473E-05  1.71584E-04  1.72501E-04  1.75605E-04  1.80208E-04  1.75396E-04  8.75294E-04  2.03333E-04  1.21272E-03  2.88490E-04
  -26.4000  9.03024E-05  2.15742E-05  8.31084E-05  8.00709E-05  8.52431E-05  2.48422E-04  6.60731E-05  1.72924E-04  1.73861E-04  1.77041E-04  1.81754E-04  1.76833E-04  8.82413E-04  2.09818E-04  1.22114E-03  2.97466E-04
  -26.3000  9.11015E-05  2.22437E-05  8.32997E-05  8.01899E-05  8.54819E-05  2.48972E-04  6.79030E-05  1.74281E-04  1.75240E-04  1.78497E-04  1.83323E-04  1.78290E-04  8.89631E-04  2.16357E-04  1.22970E-03  3.06504E-04
  -26.2000  9.19213E-05  2.29193E-05  8.34998E-05  8.03152E-05  8.57310E-05  2.49546E-04  6.97372E-05  1.75655E-04  1.76636E-04  1.79974E-04  1.84917E-04  1.79767E-04  8.96948E-04  2.22949E-04  1.23842E-03  3.15606E-04
  -26.1000  9.27631E-05  2.36011E-05  8.37089E-05  8.04469E-05  8.59907E-05  2.50146E-04  7.15757E-05  1.77047E-04  1.78050E-04  1.81471E-04  1.86535E-04  1.81266E-04  9.04369E-04  2.29596E-04  1.24728E-03  3.24773E-04
  -26.0000  9.36277E-05  2.42893E-05  8.39275E-05  8.05852E-05  8.62615E-05  2.50774E-04  7.34189E-05  1.78456E-04  1.79483E-04  1.82990E-04  1.88180E-04  1.82786E-04  9.11895E-04  2.36299E-04  1.25630E-03  3.34007E-04
  -25.9000  9.45162E-05  2.49840E-05  8.41558E-05  8.07305E-05  8.65438E-05  2.51430E-04  7.52668E-05  1.79883E-04  1.80934E-04  1.84531E-04  1.89851E-04  1.84329E-04  9.19529E-04  2.43057E-04  1.26548E-03  3.43308E-04
  -25.8000  9.54298E-05  2.56854E-05  8.43943E-05  8.08829E-05  8.68381E-05  2.52115E-04  7.71198E-05  1.81329E-04  1.82405E-04  1.86095E-04  1.91550E-04  1.85895E-04  9.27273E-04  2.49872E-04  1.27482E-03  3.52678E-04
  -25.7000  9.63697E-05  2.63937E-05  8.46435E-05  8.10427E-05  8.71450E-05  2.52831E-04  7.89781E-05  1.82794E-04  1.83896E-04  1.87682E-04  1.93276E-04  1.87484E-04  9.35131E-04  2.56746E-04  1.28433E-03  3.62117E-04
  -25.6000  9.73367E-05  2.71091E-05  8.49035E-05  8.12101E-05  8.74647E-05  2.53578E-04  8.08419E-05  1.84277E-04  1.85406E-04  1.89292E-04  1.95031E-04  1.89097E-04  9.43104E-04  2.63677E-04  1.29402E-03  3.71628E-04
  -25.5000  9.83322E-05  2.78318E-05  8.51749E-05  8.13854E-05  8.77977E-05  2.54358E-04  8.27114E-05  1.85780E-04  1.86937E-04  1.90926E-04  1.96816E-04  1.90735E-04  9.51193E-04  2.70668E-04  1.30388E-03  3.81212E-04
  -25.4000  9.93574E-05  2.85621E-05  8.54580E-05  8.15688E-05  8.81448E-05  2.55172E-04  8.45869E-05  1.87302E-04  1.88488E-04  1.92585E-04  1.98630E-04  1.92398E-04  9.59404E-04  2.77720E-04  1.31393E-03  3.90869E-04
  -25.3000  1.00414E-04  2.93001E-05  8.57536E-05  8.17608E-05  8.85064E-05  2.56021E-04  8.64686E-05  1.88845E-04  1.90061E-04  1.94270E-04  2.00476E-04  1.94086E-04  9.67739E-04  2.84833E-04  1.32417E-03  4.00601E-04
  -25.2000  1.01504E-04  3.00461E-05  8.60620E-05  8.19615E-05  8.88833E-05  2.56907E-04  8.83568E-05  1.90408E-04  1.91655E-04  1.95980E-04  2.02355E-04  1.95802E-04  9.76200E-04  2.92008E-04  1.33461E-03  4.10410E-04
  -25.1000  1.02628E-04  3.08004E-05  8.63837E-05  8.21714E-05  8.92761E-05  2.57831E-04  9.02518E-05  1.91993E-04  1.93272E-04  1.97717E-04  2.04266E-04  1.97544E-04  9.84792E-04  2.99246E-04  1.34525E-03  4.20298E-04
  -25.0000  1.03788E-04  3.15633E-05  8.67196E-05  8.23909E-05  8.96855E-05  2.58796E-04  9.21540E-05  1.93598E-04  1.94911E-04  1.99481E-04  2.06212E-04  1.99315E-04  9.93518E-04  3.06548E-04  1.35610E-03  4.30265E-04
  -24.9000  1.04987E-04  3.23349E-05  8.70702E-05  8.26204E-05  9.01123E-05  2.59803E-04  9.40635E-05  1.95225E-04  1.96573E-04  2.01274E-04  2.08194E-04  2.01114E-04  1.00238E-03  3.13915E-04  1.36717E-03  4.40314E-04
  -24.8000  1.06226E-04  3.31157E-05  8.74362E-05  8.28602E-05  9.05574E-05  2.60854E-04  9.59807E-05  1.96875E-04  1.98259E-04  2.03095E-04  2.10211E-04  2.02944E-04  1.01138E-03  3.21349E-04  1.37846E-03  4.50445E-04
  -24.7000  1.07507E-04  3.39058E-05  8.78182E-05  8.31108E-05  9.10216E-05  2.61951E-04  9.79060E-05  1.98546E-04  1.99968E-04  2.04946E-04  2.12267E-04  2.04803E-04  1.02053E-03  3.28849E-04  1.38999E-03  4.60661E-04
  -24.6000  1.08834E-04  3.47057E-05  8.82172E-05  8.33729E-05  9.15059E-05  2.63096E-04  9.98397E-05  2.00241E-04  2.01702E-04  2.06827E-04  2.14361E-04  2.06694E-04  1.02983E-03  3.36419E-04  1.40176E-03  4.70964E-04
  -24.5000  1.10208E-04  3.55158E-05  8.86343E-05  8.36470E-05  9.20117E-05  2.64293E-04  1.01782E-04  2.01960E-04  2.03462E-04  2.08740E-04  2.16496E-04  2.08618E-04  1.03928E-03  3.44057E-04  1.41378E-03  4.81355E-04
  -24.4000  1.11633E-04  3.63362E-05  8.90702E-05  8.39336E-05  9.25397E-05  2.65543E-04  1.03734E-04  2.03702E-04  2.05247E-04  2.10686E-04  2.18674E-04  2.10576E-04  1.04888E-03  3.51766E-04  1.42606E-03  4.91836E-04
  -24.3000  1.13110E-04  3.71676E-05  8.95256E-05  8.42332E-05  9.30910E-05  2.66850E-04  1.05695E-04  2.05469E-04  2.07058E-04  2.12664E-04  2.20894E-04  2.12568E-04  1.05865E-03  3.59547E-04  1.43861E-03  5.02410E-04
  -24.2000  1.14644E-04  3.80102E-05  9.00019E-05  8.45465E-05  9.36669E-05  2.68215E-04  1.07667E-04  2.07261E-04  2.08896E-04  2.14677E-04  2.23160E-04  2.14596E-04  1.06859E-03  3.67401E-04  1.45145E-03  5.13078E-04
  -24.1000  1.16237E-04  3.88645E-05  9.04999E-05  8.48743E-05  9.42687E-05  2.69643E-04  1.09648E-04  2.09079E-04  2.10762E-04  2.16725E-04  2.25472E-04  2.16660E-04  1.07870E-03  3.75329E-04  1.46458E-03  5.23842E-04
  -24.0000  1.17893E-04  3.97310E-05  9.10211E-05  8.52172E-05  9.48980E-05  2.71136E-04  1.11641E-04  2.10922E-04  2.12656E-04  2.18810E-04  2.27832E-04  2.18763E-04  1.08898E-03  3.83333E-04  1.47801E-03  5.34706E-04
  -23.9000  1.19617E-04  4.06102E-05  9.15666E-05  8.55761E-05  9.55561E-05  2.72699E-04  1.13646E-04  2.12792E-04  2.14579E-04  2.20932E-04  2.30243E-04  2.20906E-04  1.09945E-03  3.91414E-04  1.49177E-03  5.45670E-04
  -23.8000  1.21412E-04  4.15026E-05  9.21379E-05  8.59519E-05  9.62449E-05  2.74335E-04  1.15662E-04  2.14690E-04  2.16531E-04  2.23094E-04  2.32707E-04  2.23089E-04  1.11011E-03  3.99573E-04  1.50586E-03  5.56738E-04
  -23.7000  1.23283E-04  4.24087E-05  9.27367E-05  8.63456E-05  9.69663E-05  2.76049E-04  1.17691E-04  2.16615E-04  2.18514E-04  2.25296E-04  2.35225E-04  2.25316E-04  1.12096E-03  4.07812E-04  1.52030E-03  5.67912E-04
  -23.6000  1.25236E-04  4.33291E-05  9.33646E-05  8.67582E-05  9.77220E-05  2.77845E-04  1.19733E-04  2.18568E-04  2.20528E-04  2.27539E-04  2.37800E-04  2.27586E-04  1.13202E-03  4.16133E-04  1.53510E-03  5.79195E-04
  -23.5000  1.27276E-04  4.42646E-05  9.40234E-05  8.71909E-05  9.85145E-05  2.79729E-04  1.21789E-04  2.20551E-04  2.22574E-04  2.29826E-04  2.40435E-04  2.29903E-04  1.14329E-03  4.24536E-04  1.55029E-03  5.90589E-04
  -23.4000  1.29409E-04  4.52157E-05  9.47151E-05  8.76448E-05  9.93458E-05  2.81706E-04  1.23859E-04  2.22563E-04  2.24653E-04  2.32158E-04  2.43132E-04  2.32268E-04  1.15477E-03  4.33023E-04  1.56589E-03  6.02098E-04
  -23.3000  1.31642E-04  4.61833E-05  9.54418E-05  8.81212E-05  1.00219E-04  2.83782E-04  1.25945E-04  2.24605E-04  2.26765E-04  2.34535E-04  2.45894E-04  2.34683E-04  1.16648E-03  4.41596E-04  1.58190E-03  6.13725E-04
  -23.2000  1.33982E-04  4.71680E-05  9.62061E-05  8.86219E-05  1.01136E-04  2.85964E-04  1.28047E-04  2.26679E-04  2.28912E-04  2.36962E-04  2.48724E-04  2.37150E-04  1.17843E-03  4.50258E-04  1.59837E-03  6.25473E-04
  -23.1000  1.36437E-04  4.81708E-05  9.70104E-05  8.91482E-05  1.02100E-04  2.88259E-04  1.30166E-04  2.28784E-04  2.31094E-04  2.39439E-04  2.51627E-04  2.39671E-04  1.19062E-03  4.59009E-04  1.61531E-03  6.37345E-04
  -23.0000  1.39015E-04  4.91926E-05  9.78573E-05  8.97019E-05  1.03115E-04  2.90674E-04  1.32302E-04  2.30923E-04  2.33314E-04  2.41968E-04  2.54604E-04  2.42251E-04  1.20306E-03  4.67851E-04  1.63275E-03  6.49345E-04
  -22.9000  1.41727E-04  5.02343E-05  9.87500E-05  9.02848E-05  1.04184E-04  2.93218E-04  1.34457E-04  2.33094E-04  2.35572E-04  2.44552E-04  2.57660E-04  2.44890E-04  1.21577E-03  4.76787E-04  1.65071E-03  6.61478E-04
  -22.8000  1.44583E-04  5.12969E-05  9.96916E-05  9.08989E-05  1.05310E-04  2.95901E-04  1.36632E-04  2.35300E-04  2.37868E-04  2.47193E-04  2.60800E-04  2.47591E-04  1.22875E-03  4.85818E-04  1.66924E-03  6.73747E-04
  -22.7000  1.47593E-04  5.23817E-05  1.00686E-04  9.15466E-05  1.06498E-04  2.98731E-04  1.38828E-04  2.37542E-04  2.40205E-04  2.49894E-04  2.64027E-04  2.50360E-04  1.24203E-03  4.94947E-04  1.68835E-03  6.86156E-04
  -22.6000  1.50772E-04  5.34899E-05  1.01737E-04  9.22304E-05  1.07753E-04  3.01721E-04  1.41045E-04  2.39819E-04  2.42584E-04  2.52657E-04  2.67347E-04  2.53198E-04  1.25560E-03  5.04175E-04  1.70810E-03  6.98710E-04
  -22.5000  1.54135E-04  5.46227E-05  1.02849E-04  9.29531E-05  1.09080E-04  3.04883E-04  1.43286E-04  2.42134E-04  2.45006E-04  2.55486E-04  2.70766E-04  2.56110E-04  1.26950E-03  5.13506E-04  1.72852E-03  7.11414E-04
  -22.4000  1.57696E-04  5.57818E-05  1.04028E-04  9.37177E-05  1.10484E-04  3.08230E-04  1.45552E-04  2.44487E-04  2.47472E-04  2.58383E-04  2.74289E-04  2.59100E-04  1.28373E-03  5.22941E-04  1.74966E-03  7.24274E-04
  -22.3000  1.61473E-04  5.69686E-05  1.05278E-04  9.45277E-05  1.11973E-04  3.11779E-04  1.47843E-04  2.46879E-04  2.49985E-04  2.61354E-04  2.77922E-04  2.62174E-04  1.29831E-03  5.32483E-04  1.77157E-03  7.37295E-04
  -22.2000  1.65488E-04  5.81849E-05  1.06606E-04  9.53867E-05  1.13551E-04  3.15545E-04  1.50162E-04  2.49312E-04  2.52546E-04  2.64400E-04  2.81673E-04  2.65335E-04  1.31327E-03  5.42136E-04  1.79430E-03  7.50483E-04
  -22.1000  1.69762E-04  5.94326E-05  1.08019E-04  9.62991E-05  1.15229E-04  3.19548E-04  1.52511E-04  2.51787E-04  2.55158E-04  2.67527E-04  2.85550E-04  2.68591E-04  1.32861E-03  5.51901E-04  1.81792E-03  7.63844E-04
  -22.0000  1.74318E-04  6.07138E-05  1.09523E-04  9.72690E-05  1.17013E-04  3.23805E-04  1.54891E-04  2.54304E-04  2.57820E-04  2.70738E-04  2.89559E-04  2.71945E-04  1.34437E-03  5.61782E-04  1.84249E-03  7.77386E-04
  -21.9000  1.79187E-04  6.20308E-05  1.11128E-04  9.83021E-05  1.18913E-04  3.28343E-04  1.57304E-04  2.56866E-04  2.60537E-04  2.74041E-04  2.93713E-04  2.75408E-04  1.36056E-03  5.71782E-04  1.86810E-03  7.91117E-04
  -21.8000  1.84401E-04  6.33862E-05  1.12842E-04  9.94041E-05  1.20941E-04  3.33187E-04  1.59753E-04  2.59474E-04  2.63311E-04  2.77439E-04  2.98021E-04  2.78987E-04  1.37723E-03  5.81904E-04  1.89482E-03  8.05043E-04
  -21.7000  1.89994E-04  6.47826E-05  1.14677E-04  1.00581E-04  1.23106E-04  3.38365E-04  1.62240E-04  2.62130E-04  2.66145E-04  2.80940E-04  3.02495E-04  2.82690E-04  1.39440E-03  5.92153E-04  1.92276E-03  8.19175E-04
  -21.6000  1.96007E-04  6.62232E-05  1.16643E-04  1.01841E-04  1.25424E-04  3.43908E-04  1.64768E-04  2.64835E-04  2.69042E-04  2.84550E-04  3.07147E-04  2.86527E-04  1.41210E-03  6.02532E-04  1.95202E-03  8.33522E-04
  -21.5000  2.02487E-04  6.77115E-05  1.18754E-04  1.03192E-04  1.27908E-04  3.49854E-04  1.67339E-04  2.67592E-04  2.72004E-04  2.88276E-04  3.11991E-04  2.90511E-04  1.43037E-03  6.13045E-04  1.98271E-03  8.48095E-04
  -21.4000  2.09488E-04  6.92512E-05  1.21026E-04  1.04643E-04  1.30576E-04  3.56244E-04  1.69957E-04  2.70402E-04  2.75036E-04  2.92128E-04  3.17045E-04  2.94653E-04  1.44926E-03  6.23697E-04  2.01500E-03  8.62905E-04
  -21.3000  2.17073E-04  7.08466E-05  1.23475E-04  1.06205E-04  1.33447E-04  3.63127E-04  1.72626E-04  2.73268E-04  2.78141E-04  2.96115E-04  3.22326E-04  2.98969E-04  1.46882E-03  6.34492E-04  2.04902E-03  8.77965E-04
  -21.2000  2.25312E-04  7.25026E-05  1.26122E-04  1.07891E-04  1.36542E-04  3.70555E-04  1.75350E-04  2.76192E-04  2.81324E-04  3.00248E-04  3.27855E-04  3.03476E-04  1.48910E-03  6.45437E-04  2.08496E-03  8.93289E-04
  -21.1000  2.34287E-04  7.42246E-05  1.28989E-04  1.09714E-04  1.39887E-04  3.78589E-04  1.78132E-04  2.79178E-04  2.84591E-04  3.04539E-04  3.33655E-04  3.08193E-04  1.51016E-03  6.56536E-04  2.12303E-03  9.08893E-04
