    Energy      s          Int(s)         px           py           pz           p          Int(p)       dx2-y2        dz2          dyz          dxz          dxy           d          Int(d)       total      Int(total) 
  -30.0000  8.15005E-05  5.99017E-07  8.45774E-05  8.45774E-05  8.45774E-05  2.53732E-04  1.86490E-06  1.54832E-04  1.54832E-04  1.48811E-04  1.48811E-04  1.48811E-04  7.56096E-04  5.55720E-06  1.09133E-03  8.02112E-06
  -29.9000  8.19739E-05  1.20151E-06  8.46234E-05  8.46234E-05  8.46234E-05  2.53870E-04  3.73081E-06  1.55976E-04  1.55976E-04  1.49852E-04  1.49852E-04  1.49852E-04  7.61507E-04  1.11542E-05  1.09735E-03  1.60865E-05
  -29.8000  8.24553E-05  1.80755E-06  8.46736E-05  8.46736E-05  8.46736E-05  2.54021E-04  5.59783E-06  1.57134E-04  1.57134E-04  1.50905E-04  1.50905E-04  1.50905E-04  7.66982E-04  1.67914E-05  1.10346E-03  2.41968E-05
  -29.7000  8.29447E-05  2.41718E-06  8.47281E-05  8.47281E-05  8.47281E-05  2.54184E-04  7.46605E-06  1.58307E-04  1.58307E-04  1.51969E-04  1.51969E-04  1.51969E-04  7.72521E-04  2.24693E-05  1.10965E-03  3.23525E-05
  -29.6000  8.34425E-05  3.03047E-06  8.47869E-05  8.47869E-05  8.47869E-05  2.54361E-04  9.33557E-06  1.59494E-04  1.59494E-04  1.53046E-04  1.53046E-04  1.53046E-04  7.78127E-04  2.81884E-05  1.11593E-03  4.05545E-05
  -29.5000  8.39487E-05  3.64748E-06  8.48501E-05  8.48501E-05  8.48501E-05  2.54550E-04  1.12065E-05  1.60697E-04  1.60697E-04  1.54135E-04  1.54135E-04  1.54135E-04  7.83799E-04  3.39493E-05  1.12230E-03  4.88032E-05
  -29.4000  8.44637E-05  4.26828E-06  8.49177E-05  8.49177E-05  8.49177E-05  2.54753E-04  1.30789E-05  1.61915E-04  1.61915E-04  1.55236E-04  1.55236E-04  1.55236E-04  7.89539E-04  3.97523E-05  1.12876E-03  5.70994E-05
  -29.3000  8.49876E-05  4.89293E-06  8.49899E-05  8.49899E-05  8.49899E-05  2.54970E-04  1.49529E-05  1.63148E-04  1.63148E-04  1.56350E-04  1.56350E-04  1.56350E-04  7.95348E-04  4.55980E-05  1.13530E-03  6.54438E-05
  -29.2000  8.55207E-05  5.52149E-06  8.50666E-05  8.50666E-05  8.50666E-05  2.55200E-04  1.68286E-05  1.64398E-04  1.64398E-04  1.57477E-04  1.57477E-04  1.57477E-04  8.01226E-04  5.14869E-05  1.14195E-03  7.38369E-05
  -29.1000  8.60633E-05  6.15405E-06  8.51481E-05  8.51481E-05  8.51481E-05  2.55444E-04  1.87060E-05  1.65663E-04  1.65663E-04  1.58616E-04  1.58616E-04  1.58616E-04  8.07175E-04  5.74195E-05  1.14868E-03  8.22796E-05
  -29.0000  8.66157E-05  6.79066E-06  8.52344E-05  8.52344E-05  8.52344E-05  2.55703E-04  2.05854E-05  1.66945E-04  1.66945E-04  1.59769E-04  1.59769E-04  1.59769E-04  8.13198E-04  6.33964E-05  1.15552E-03  9.07725E-05
  -28.9000  8.71781E-05  7.43141E-06  8.53256E-05  8.53256E-05  8.53256E-05  2.55977E-04  2.24668E-05  1.68244E-04  1.68244E-04  1.60935E-04  1.60935E-04  1.60935E-04  8.19294E-04  6.94181E-05  1.16245E-03  9.93163E-05
  -28.8000  8.77509E-05  8.07637E-06  8.54217E-05  8.54217E-05  8.54217E-05  2.56265E-04  2.43503E-05  1.69560E-04  1.69560E-04  1.62115E-04  1.62115E-04  1.62115E-04  8.25465E-04  7.54851E-05  1.16948E-03  1.07912E-04
  -28.7000  8.83345E-05  8.72561E-06  8.55231E-05  8.55231E-05  8.55231E-05  2.56569E-04  2.62361E-05  1.70894E-04  1.70894E-04  1.63309E-04  1.63309E-04  1.63309E-04  8.31714E-04  8.15981E-05  1.17662E-03  1.16560E-04
  -28.6000  8.89292E-05  9.37923E-06  8.56296E-05  8.56296E-05  8.56296E-05  2.56889E-04  2.81242E-05  1.72246E-04  1.72246E-04  1.64516E-04  1.64516E-04  1.64516E-04  8.38040E-04  8.77576E-05  1.18386E-03  1.25261E-04
  -28.5000  8.95351E-05  1.00373E-05  8.57414E-05  8.57414E-05  8.57414E-05  2.57224E-04  3.00147E-05  1.73616E-04  1.73616E-04  1.65738E-04  1.65738E-04  1.65738E-04  8.44446E-04  9.39642E-05  1.19121E-03  1.34016E-04
  -28.4000  9.01526E-05  1.06999E-05  8.58586E-05  8.58586E-05  8.58586E-05  2.57576E-04  3.19079E-05  1.75004E-04  1.75004E-04  1.66974E-04  1.66974E-04  1.66974E-04  8.50931E-04  1.00218E-04  1.19866E-03  1.42826E-04
  -28.3000  9.07821E-05  1.13671E-05  8.59814E-05  8.59814E-05  8.59814E-05  2.57944E-04  3.38037E-05  1.76412E-04  1.76412E-04  1.68225E-04  1.68225E-04  1.68225E-04  8.57499E-04  1.06521E-04  1.20622E-03  1.51692E-04
  -28.2000  9.14242E-05  1.20391E-05  8.61098E-05  8.61098E-05  8.61098E-05  2.58330E-04  3.57024E-05  1.77839E-04  1.77839E-04  1.69491E-04  1.69491E-04  1.69491E-04  8.64150E-04  1.12872E-04  1.21390E-03  1.60614E-04
  -28.1000  9.20793E-05  1.27159E-05  8.62441E-05  8.62441E-05  8.62441E-05  2.58732E-04  3.76041E-05  1.79286E-04  1.79286E-04  1.70772E-04  1.70772E-04  1.70772E-04  8.70888E-04  1.19273E-04  1.22170E-03  1.69593E-04
  -28.0000  9.27476E-05  1.33976E-05  8.63844E-05  8.63844E-05  8.63844E-05  2.59153E-04  3.95088E-05  1.80753E-04  1.80753E-04  1.72069E-04  1.72069E-04  1.72069E-04  8.77712E-04  1.25724E-04  1.22961E-03  1.78631E-04
  -27.9000  9.34296E-05  1.40842E-05  8.65308E-05  8.65308E-05  8.65308E-05  2.59592E-04  4.14168E-05  1.82241E-04  1.82241E-04  1.73381E-04  1.73381E-04  1.73381E-04  8.84625E-04  1.32226E-04  1.23765E-03  1.87727E-04
  -27.8000  9.41258E-05  1.47761E-05  8.66834E-05  8.66834E-05  8.66834E-05  2.60050E-04  4.33281E-05  1.83750E-04  1.83750E-04  1.74709E-04  1.74709E-04  1.74709E-04  8.91628E-04  1.38779E-04  1.24580E-03  1.96884E-04
  -27.7000  9.48367E-05  1.54731E-05  8.68424E-05  8.68424E-05  8.68424E-05  2.60527E-04  4.52430E-05  1.85280E-04  1.85280E-04  1.76054E-04  1.76054E-04  1.76054E-04  8.98722E-04  1.45385E-04  1.25409E-03  2.06101E-04
  -27.6000  9.55628E-05  1.61755E-05  8.70080E-05  8.70080E-05  8.70080E-05  2.61024E-04  4.71614E-05  1.86833E-04  1.86833E-04  1.77415E-04  1.77415E-04  1.77415E-04  9.05911E-04  1.52043E-04  1.26250E-03  2.15380E-04
  -27.5000  9.63048E-05  1.68833E-05  8.71805E-05  8.71805E-05  8.71805E-05  2.61541E-04  4.90837E-05  1.88409E-04  1.88409E-04  1.78793E-04  1.78793E-04  1.78793E-04  9.13196E-04  1.58755E-04  1.27104E-03  2.24722E-04
  -27.4000  9.70633E-05  1.75967E-05  8.73600E-05  8.73600E-05  8.73600E-05  2.62080E-04  5.10100E-05  1.90008E-04  1.90008E-04  1.80187E-04  1.80187E-04  1.80187E-04  9.20578E-04  1.65521E-04  1.27972E-03  2.34128E-04
  -27.3000  9.78390E-05  1.83158E-05  8.75468E-05  8.75468E-05  8.75468E-05  2.62640E-04  5.29404E-05  1.91631E-04  1.91631E-04  1.81600E-04  1.81600E-04  1.81600E-04  9.28060E-04  1.72342E-04  1.28854E-03  2.43599E-04
  -27.2000  9.86321E-05  1.90407E-05  8.77409E-05  8.77409E-05  8.77409E-05  2.63223E-04  5.48750E-05  1.93278E-04  1.93278E-04  1.83030E-04  1.83030E-04  1.83030E-04  9.35644E-04  1.79219E-04  1.29750E-03  2.53135E-04
  -27.1000  9.94436E-05  1.97716E-05  8.79426E-05  8.79426E-05  8.79426E-05  2.63828E-04  5.68141E-05  1.94949E-04  1.94949E-04  1.84477E-04  1.84477E-04  1.84477E-04  9.43331E-04  1.86153E-04  1.30660E-03  2.62738E-04
  -27.0000  1.00274E-04  2.05086E-05  8.81523E-05  8.81523E-05  8.81523E-05  2.64457E-04  5.87578E-05  1.96647E-04  1.96647E-04  1.85943E-04  1.85943E-04  1.85943E-04  9.51124E-04  1.93143E-04  1.31585E-03  2.72410E-04
  -26.9000  1.01124E-04  2.12519E-05  8.83698E-05  8.83698E-05  8.83698E-05  2.65109E-04  6.07063E-05  1.98370E-04  1.98370E-04  1.87427E-04  1.87427E-04  1.87427E-04  9.59021E-04  2.00192E-04  1.32525E-03  2.82150E-04
  -26.8000  1.01994E-04  2.20015E-05  8.85958E-05  8.85958E-05  8.85958E-05  2.65787E-04  6.26599E-05  2.00120E-04  2.00120E-04  1.88930E-04  1.88930E-04  1.88930E-04  9.67030E-04  2.07299E-04  1.33481E-03  2.91961E-04
  -26.7000  1.02886E-04  2.27577E-05  8.88305E-05  8.88305E-05  8.88305E-05  2.66491E-04  6.46185E-05  2.01897E-04  2.01897E-04  1.90453E-04  1.90453E-04  1.90453E-04  9.75153E-04  2.14467E-04  1.34453E-03  3.01843E-04
  -26.6000  1.03800E-04  2.35206E-05  8.90741E-05  8.90741E-05  8.90741E-05  2.67222E-04  6.65826E-05  2.03703E-04  2.03703E-04  1.91995E-04  1.91995E-04  1.91995E-04  9.83391E-04  2.21694E-04  1.35441E-03  3.11798E-04
  -26.5000  1.04737E-04  2.42904E-05  8.93269E-05  8.93269E-05  8.93269E-05  2.67981E-04  6.85522E-05  2.05537E-04  2.05537E-04  1.93557E-04  1.93557E-04  1.93557E-04  9.91745E-04  2.28984E-04  1.36446E-03  3.21826E-04
  -26.4000  1.05699E-04  2.50673E-05  8.95893E-05  8.95893E-05  8.95893E-05  2.68768E-04  7.05276E-05  2.07401E-04  2.07401E-04  1.95139E-04  1.95139E-04  1.95139E-04  1.00022E-03  2.36335E-04  1.37469E-03  3.31930E-04
  -26.3000  1.06685E-04  2.58514E-05  8.98617E-05  8.98617E-05  8.98617E-05  2.69585E-04  7.25090E-05  2.09296E-04  2.09296E-04  1.96742E-04  1.96742E-04  1.96742E-04  1.00882E-03  2.43750E-04  1.38509E-03  3.42110E-04
  -26.2000  1.07698E-04  2.66430E-05  9.01444E-05  9.01444E-05  9.01444E-05  2.70433E-04  7.44967E-05  2.11222E-04  2.11222E-04  1.98366E-04  1.98366E-04  1.98366E-04  1.01754E-03  2.51229E-04  1.39567E-03  3.52368E-04
  -26.1000  1.08739E-04  2.74422E-05  9.04379E-05  9.04379E-05  9.04379E-05  2.71314E-04  7.64908E-05  2.13180E-04  2.13180E-04  2.00011E-04  2.00011E-04  2.00011E-04  1.02639E-03  2.58772E-04  1.40645E-03  3.62705E-04
  -26.0000  1.09808E-04  2.82493E-05  9.07426E-05  9.07426E-05  9.07426E-05  2.72228E-04  7.84916E-05  2.15172E-04  2.15172E-04  2.01677E-04  2.01677E-04  2.01677E-04  1.03538E-03  2.66382E-04  1.41741E-03  3.73123E-04
  -25.9000  1.10908E-04  2.90644E-05  9.10588E-05  9.10588E-05  9.10588E-05  2.73176E-04  8.04994E-05  2.17197E-04  2.17197E-04  2.03366E-04  2.03366E-04  2.03366E-04  1.04449E-03  2.74059E-04  1.42858E-03  3.83623E-04
  -25.8000  1.12039E-04  2.98879E-05  9.13870E-05  9.13870E-05  9.13870E-05  2.74161E-04  8.25145E-05  2.19258E-04  2.19258E-04  2.05078E-04  2.05078E-04  2.05078E-04  1.05375E-03  2.81804E-04  1.43995E-03  3.94207E-04
  -25.7000  1.13204E-04  3.07200E-05  9.17278E-05  9.17278E-05  9.17278E-05  2.75183E-04  8.45370E-05  2.21354E-04  2.21354E-04  2.06812E-04  2.06812E-04  2.06812E-04  1.06314E-03  2.89618E-04  1.45153E-03  4.04875E-04
  -25.6000  1.14402E-04  3.15608E-05  9.20815E-05  9.20815E-05  9.20815E-05  2.76245E-04  8.65674E-05  2.23488E-04  2.23488E-04  2.08569E-04  2.08569E-04  2.08569E-04  1.07268E-03  2.97502E-04  1.46333E-03  4.15630E-04
  -25.5000  1.15637E-04  3.24107E-05  9.24487E-05  9.24487E-05  9.24487E-05  2.77346E-04  8.86059E-05  2.25659E-04  2.25659E-04  2.10350E-04  2.10350E-04  2.10350E-04  1.08237E-03  3.05457E-04  1.47535E-03  4.26474E-04
  -25.4000  1.16910E-04  3.32700E-05  9.28302E-05  9.28302E-05  9.28302E-05  2.78491E-04  9.06527E-05  2.27870E-04  2.27870E-04  2.12155E-04  2.12155E-04  2.12155E-04  1.09221E-03  3.13485E-04  1.48761E-03  4.37408E-04
  -25.3000  1.18224E-04  3.41389E-05  9.32266E-05  9.32266E-05  9.32266E-05  2.79680E-04  9.27083E-05  2.30122E-04  2.30122E-04  2.13985E-04  2.13985E-04  2.13985E-04  1.10220E-03  3.21586E-04  1.50010E-03  4.48433E-04
  -25.2000  1.19580E-04  3.50178E-05  9.36385E-05  9.36385E-05  9.36385E-05  2.80915E-04  9.47730E-05  2.32416E-04  2.32416E-04  2.15840E-04  2.15840E-04  2.15840E-04  1.11235E-03  3.29762E-04  1.51285E-03  4.59552E-04
  -25.1000  1.20980E-04  3.59070E-05  9.40667E-05  9.40667E-05  9.40667E-05  2.82200E-04  9.68472E-05  2.34754E-04  2.34754E-04  2.17721E-04  2.17721E-04  2.17721E-04  1.12267E-03  3.38013E-04  1.52585E-03  4.70767E-04
  -25.0000  1.22427E-04  3.68068E-05  9.45119E-05  9.45119E-05  9.45119E-05  2.83536E-04  9.89311E-05  2.37136E-04  2.37136E-04  2.19627E-04  2.19627E-04  2.19627E-04  1.13315E-03  3.46342E-04  1.53912E-03  4.82080E-04
  -24.9000  1.23925E-04  3.77176E-05  9.49753E-05  9.49753E-05  9.49753E-05  2.84926E-04  1.01025E-04  2.39565E-04  2.39565E-04  2.21561E-04  2.21561E-04  2.21561E-04  1.14381E-03  3.54749E-04  1.55266E-03  4.93491E-04
  -24.8000  1.25475E-04  3.86399E-05  9.54576E-05  9.54576E-05  9.54576E-05  2.86373E-04  1.03130E-04  2.42042E-04  2.42042E-04  2.23521E-04  2.23521E-04  2.23521E-04  1.15465E-03  3.63235E-04  1.56649E-03  5.05005E-04
  -24.7000  1.27081E-04  3.95739E-05  9.59596E-05  9.59596E-05  9.59596E-05  2.87879E-04  1.05246E-04  2.44570E-04  2.44570E-04  2.25509E-04  2.25509E-04  2.25509E-04  1.16567E-03  3.71802E-04  1.58062E-03  5.16622E-04
  -24.6000  1.28745E-04  4.05202E-05  9.64825E-05  9.64825E-05  9.64825E-05  2.89448E-04  1.07373E-04  2.47149E-04  2.47149E-04  2.27525E-04  2.27525E-04  2.27525E-04  1.17687E-03  3.80452E-04  1.59506E-03  5.28346E-04
  -24.5000  1.30472E-04  4.14791E-05  9.70273E-05  9.70273E-05  9.70273E-05  2.91082E-04  1.09513E-04  2.49781E-04  2.49781E-04  2.29569E-04  2.29569E-04  2.29569E-04  1.18827E-03  3.89186E-04  1.60982E-03  5.40178E-04
  -24.4000  1.32265E-04  4.24512E-05  9.75954E-05  9.75954E-05  9.75954E-05  2.92786E-04  1.11665E-04  2.52470E-04  2.52470E-04  2.31643E-04  2.31643E-04  2.31643E-04  1.19987E-03  3.98005E-04  1.62492E-03  5.52121E-04
  -24.3000  1.34129E-04  4.34371E-05  9.81880E-05  9.81880E-05  9.81880E-05  2.94564E-04  1.13830E-04  2.55217E-04  2.55217E-04  2.33747E-04  2.33747E-04  2.33747E-04  1.21167E-03  4.06910E-04  1.64037E-03  5.64177E-04
  -24.2000  1.36066E-04  4.44371E-05  9.88059E-05  9.88059E-05  9.88059E-05  2.96418E-04  1.16008E-04  2.58022E-04  2.58022E-04  2.35879E-04  2.35879E-04  2.35879E-04  1.22368E-03  4.15904E-04  1.65617E-03  5.76350E-04
  -24.1000  1.38083E-04  4.54520E-05  9.94514E-05  9.94514E-05  9.94514E-05  2.98354E-04  1.18201E-04  2.60890E-04  2.60890E-04  2.38043E-04  2.38043E-04  2.38043E-04  1.23591E-03  4.24988E-04  1.67235E-03  5.88641E-04
  -24.0000  1.40186E-04  4.64824E-05  1.00126E-04  1.00126E-04  1.00126E-04  3.00378E-04  1.20409E-04  2.63825E-04  2.63825E-04  2.40239E-04  2.40239E-04  2.40239E-04  1.24837E-03  4.34163E-04  1.68893E-03  6.01055E-04
  -23.9000  1.42380E-04  4.75289E-05  1.00832E-04  1.00832E-04  1.00832E-04  3.02495E-04  1.22632E-04  2.66827E-04  2.66827E-04  2.42467E-04  2.42467E-04  2.42467E-04  1.26106E-03  4.43432E-04  1.70593E-03  6.13593E-04
  -23.8000  1.44670E-04  4.85922E-05  1.01570E-04  1.01570E-04  1.01570E-04  3.04709E-04  1.24872E-04  2.69902E-04  2.69902E-04  2.44728E-04  2.44728E-04  2.44728E-04  1.27399E-03  4.52796E-04  1.72337E-03  6.26260E-04
  -23.7000  1.47066E-04  4.96731E-05  1.02343E-04  1.02343E-04  1.02343E-04  3.07030E-04  1.27128E-04  2.73051E-04  2.73051E-04  2.47022E-04  2.47022E-04  2.47022E-04  1.28717E-03  4.62256E-04  1.74126E-03  6.39058E-04
  -23.6000  1.49574E-04  5.07724E-05  1.03154E-04  1.03154E-04  1.03154E-04  3.09462E-04  1.29403E-04  2.76279E-04  2.76279E-04  2.49351E-04  2.49351E-04  2.49351E-04  1.30061E-03  4.71815E-04  1.75964E-03  6.51991E-04
  -23.5000  1.52202E-04  5.18911E-05  1.04004E-04  1.04004E-04  1.04004E-04  3.12013E-04  1.31696E-04  2.79588E-04  2.79588E-04  2.51714E-04  2.51714E-04  2.51714E-04  1.31432E-03  4.81476E-04  1.77853E-03  6.65063E-04
  -23.4000  1.54959E-04  5.30300E-05  1.04897E-04  1.04897E-04  1.04897E-04  3.14691E-04  1.34009E-04  2.82984E-04  2.82984E-04  2.54113E-04  2.54113E-04  2.54113E-04  1.32831E-03  4.91238E-04  1.79796E-03  6.78278E-04
  -23.3000  1.57856E-04  5.41902E-05  1.05835E-04  1.05835E-04  1.05835E-04  3.17506E-04  1.36343E-04  2.86471E-04  2.86471E-04  2.56548E-04  2.56548E-04  2.56548E-04  1.34259E-03  5.01106E-04  1.81795E-03  6.91639E-04
  -23.2000  1.60903E-04  5.53728E-05  1.06823E-04  1.06823E-04  1.06823E-04  3.20468E-04  1.38698E-04  2.90053E-04  2.90053E-04  2.59020E-04  2.59020E-04  2.59020E-04  1.35717E-03  5.11081E-04  1.83854E-03  7.05152E-04
  -23.1000  1.64114E-04  5.65791E-05  1.07862E-04  1.07862E-04  1.07862E-04  3.23586E-04  1.41076E-04  2.93736E-04  2.93736E-04  2.61530E-04  2.61530E-04  2.61530E-04  1.37206E-03  5.21166E-04  1.85976E-03  7.18821E-04
  -23.0000  1.67500E-04  5.78102E-05  1.08958E-04  1.08958E-04  1.08958E-04  3.26873E-04  1.43479E-04  2.97524E-04  2.97524E-04  2.64078E-04  2.64078E-04  2.64078E-04  1.38728E-03  5.31362E-04  1.88165E-03  7.32651E-04
  -22.9000  1.71077E-04  5.90676E-05  1.10113E-04  1.10113E-04  1.10113E-04  3.30340E-04  1.45907E-04  3.01424E-04  3.01424E-04  2.66664E-04  2.66664E-04  2.66664E-04  1.40284E-03  5.41673E-04  1.90426E-03  7.46647E-04
  -22.8000  1.74864E-04  6.03528E-05  1.11335E-04  1.11335E-04  1.11335E-04  3.34005E-04  1.48362E-04  3.05443E-04  3.05443E-04  2.69291E-04  2.69291E-04  2.69291E-04  1.41876E-03  5.52100E-04  1.92763E-03  7.60815E-04
  -22.7000  1.78879E-04  6.16675E-05  1.12628E-04  1.12628E-04  1.12628E-04  3.37883E-04  1.50845E-04  3.09590E-04  3.09590E-04  2.71960E-04  2.71960E-04  2.71960E-04  1.43506E-03  5.62648E-04  1.95182E-03  7.75161E-04
  -22.6000  1.83144E-04  6.30136E-05  1.13997E-04  1.13997E-04  1.13997E-04  3.41992E-04  1.53359E-04  3.13872E-04  3.13872E-04  2.74670E-04  2.74670E-04  2.74670E-04  1.45175E-03  5.73318E-04  1.97689E-03  7.89690E-04
  -22.5000  1.87681E-04  6.43930E-05  1.15451E-04  1.15451E-04  1.15451E-04  3.46352E-04  1.55904E-04  3.18297E-04  3.18297E-04  2.77423E-04  2.77423E-04  2.77423E-04  1.46886E-03  5.84114E-04  2.00290E-03  8.04412E-04
  -22.4000  1.92518E-04  6.58080E-05  1.16995E-04  1.16995E-04  1.16995E-04  3.50984E-04  1.58484E-04  3.22876E-04  3.22876E-04  2.80220E-04  2.80220E-04  2.80220E-04  1.48641E-03  5.95039E-04  2.02991E-03  8.19331E-04
  -22.3000  1.97685E-04  6.72610E-05  1.18637E-04  1.18637E-04  1.18637E-04  3.55912E-04  1.61100E-04  3.27619E-04  3.27619E-04  2.83062E-04  2.83062E-04  2.83062E-04  1.50442E-03  6.06096E-04  2.05802E-03  8.34457E-04
  -22.2000  2.03217E-04  6.87546E-05  1.20389E-04  1.20389E-04  1.20389E-04  3.61166E-04  1.63755E-04  3.32538E-04  3.32538E-04  2.85949E-04  2.85949E-04  2.85949E-04  1.52292E-03  6.17290E-04  2.08731E-03  8.49799E-04
  -22.1000  2.09153E-04  7.02918E-05  1.22259E-04  1.22259E-04  1.22259E-04  3.66776E-04  1.66450E-04  3.37648E-04  3.37648E-04  2.88883E-04  2.88883E-04  2.88883E-04  1.54195E-03  6.28623E-04  2.11787E-03  8.65365E-04
  -22.0000  2.15537E-04  7.18760E-05  1.24259E-04  1.24259E-04  1.24259E-04  3.72776E-04  1.69190E-04  3.42962E-04  3.42962E-04  2.91865E-04  2.91865E-04  2.91865E-04  1.56152E-03  6.40100E-04  2.14983E-03  8.81166E-04
  -21.9000  2.22420E-04  7.35108E-05  1.26402E-04  1.26402E-04  1.26402E-04  3.79207E-04  1.71977E-04  3.48497E-04  3.48497E-04  2.94896E-04  2.94896E-04  2.94896E-04  1.58168E-03  6.51725E-04  2.18331E-03  8.97213E-04
  -21.8000  2.29859E-04  7.52002E-05  1.28704E-04  1.28704E-04  1.28704E-04  3.86112E-04  1.74815E-04  3.54272E-04  3.54272E-04  2.97976E-04  2.97976E-04  2.97976E-04  1.60247E-03  6.63503E-04  2.21844E-03  9.13518E-04
  -21.7000  2.37922E-04  7.69489E-05  1.31180E-04  1.31180E-04  1.31180E-04  3.93540E-04  1.77708E-04  3.60306E-04  3.60306E-04  3.01105E-04  3.01105E-04  3.01105E-04  1.62393E-03  6.75438E-04  2.25539E-03  9.30095E-04
  -21.6000  2.46692E-04  7.87620E-05  1.33852E-04  1.33852E-04  1.33852E-04  4.01556E-04  1.80659E-04  3.66626E-04  3.66626E-04  3.04287E-04  3.04287E-04  3.04287E-04  1.64611E-03  6.87537E-04  2.29436E-03  9.46958E-04
  -21.5000  2.56262E-04  8.06455E-05  1.36742E-04  1.36742E-04  1.36742E-04  4.10225E-04  1.83674E-04  3.73260E-04  3.73260E-04  3.07523E-04  3.07523E-04  3.07523E-04  1.66909E-03  6.99805E-04  2.33558E-03  9.64124E-04
  -21.4000  2.66734E-04  8.26060E-05  1.39873E-04  1.39873E-04  1.39873E-04  4.19620E-04  1.86758E-04  3.80236E-04  3.80236E-04  3.10813E-04  3.10813E-04  3.10813E-04  1.69291E-03  7.12247E-04  2.37926E-03  9.81612E-04
  -21.3000  2.78236E-04  8.46510E-05  1.43277E-04  1.43277E-04  1.43277E-04  4.29831E-04  1.89917E-04  3.87589E-04  3.87589E-04  3.14160E-04  3.14160E-04  3.14160E-04  1.71766E-03  7.24872E-04  2.42573E-03  9.99440E-04
  -21.2000  2.90921E-04  8.67892E-05  1.46988E-04  1.46988E-04  1.46988E-04  4.40963E-04  1.93158E-04  3.95361E-04  3.95361E-04  3.17563E-04  3.17563E-04  3.17563E-04  1.74341E-03  7.37686E-04  2.47530E-03  1.01763E-03
  -21.1000  3.04965E-04  8.90307E-05  1.51044E-04  1.51044E-04  1.51044E-04  4.53133E-04  1.96489E-04  4.03598E-04  4.03598E-04  3.21025E-04  3.21025E-04  3.21025E-04  1.77027E-03  7.50697E-04  2.52837E-03  1.03622E-03
