    Energy      s          Int(s)         px           py           pz           p          Int(p)       dx2-y2        dz2          dyz          dxz          dxy           d          Int(d)       total      Int(total) 
  -30.0000  9.97519E-05  7.33163E-07  1.33380E-04  1.33380E-04  1.33411E-04  4.00170E-04  2.94120E-06  1.40904E-04  1.41009E-04  1.40837E-04  1.40837E-04  1.40904E-04  7.04491E-04  5.17792E-06  1.20441E-03  8.85228E-06
  -29.9000  1.00192E-04  1.46956E-06  1.33155E-04  1.33155E-04  1.33187E-04  3.99497E-04  5.87745E-06  1.41806E-04  1.41911E-04  1.41738E-04  1.41738E-04  1.41806E-04  7.08997E-04  1.03889E-05  1.20869E-03  1.77360E-05
  -29.8000  1.00637E-04  2.20923E-06  1.32937E-04  1.32937E-04  1.32969E-04  3.98843E-04  8.80889E-06  1.42716E-04  1.42823E-04  1.42647E-04  1.42647E-04  1.42716E-04  7.13550E-04  1.56334E-05  1.21303E-03  2.66516E-05
  -29.7000  1.01088E-04  2.95222E-06  1.32725E-04  1.32725E-04  1.32758E-04  3.98208E-04  1.17357E-05  1.43636E-04  1.43744E-04  1.43567E-04  1.43567E-04  1.43636E-04  7.18150E-04  2.09117E-05  1.21745E-03  3.55996E-05
  -29.6000  1.01545E-04  3.69856E-06  1.32520E-04  1.32520E-04  1.32553E-04  3.97593E-04  1.46579E-05  1.44566E-04  1.44674E-04  1.44496E-04  1.44496E-04  1.44566E-04  7.22798E-04  2.62242E-05  1.22194E-03  4.45807E-05
  -29.5000  1.02008E-04  4.44830E-06  1.32321E-04  1.32321E-04  1.32354E-04  3.96996E-04  1.75758E-05  1.45505E-04  1.45615E-04  1.45435E-04  1.45435E-04  1.45505E-04  7.27495E-04  3.15712E-05  1.22650E-03  5.35953E-05
  -29.4000  1.02476E-04  5.20149E-06  1.32129E-04  1.32129E-04  1.32161E-04  3.96418E-04  2.04894E-05  1.46455E-04  1.46565E-04  1.46384E-04  1.46384E-04  1.46455E-04  7.32242E-04  3.69531E-05  1.23114E-03  6.26440E-05
  -29.3000  1.02950E-04  5.95816E-06  1.31942E-04  1.31942E-04  1.31975E-04  3.95860E-04  2.33989E-05  1.47414E-04  1.47526E-04  1.47342E-04  1.47342E-04  1.47414E-04  7.37039E-04  4.23702E-05  1.23585E-03  7.17273E-05
  -29.2000  1.03430E-04  6.71836E-06  1.31762E-04  1.31762E-04  1.31796E-04  3.95320E-04  2.63045E-05  1.48384E-04  1.48496E-04  1.48311E-04  1.48311E-04  1.48384E-04  7.41886E-04  4.78230E-05  1.24064E-03  8.08458E-05
  -29.1000  1.03917E-04  7.48213E-06  1.31589E-04  1.31589E-04  1.31622E-04  3.94799E-04  2.92062E-05  1.49363E-04  1.49477E-04  1.49290E-04  1.49290E-04  1.49363E-04  7.46784E-04  5.33117E-05  1.24550E-03  9.00001E-05
  -29.0000  1.04409E-04  8.24952E-06  1.31421E-04  1.31421E-04  1.31455E-04  3.94297E-04  3.21042E-05  1.50354E-04  1.50469E-04  1.50280E-04  1.50280E-04  1.50354E-04  7.51735E-04  5.88369E-05  1.25044E-03  9.91907E-05
  -28.9000  1.04908E-04  9.02058E-06  1.31260E-04  1.31260E-04  1.31294E-04  3.93814E-04  3.49987E-05  1.51355E-04  1.51471E-04  1.51280E-04  1.51280E-04  1.51355E-04  7.56740E-04  6.43988E-05  1.25546E-03  1.08418E-04
  -28.8000  1.05413E-04  9.79535E-06  1.31105E-04  1.31105E-04  1.31139E-04  3.93349E-04  3.78898E-05  1.52366E-04  1.52484E-04  1.52291E-04  1.52291E-04  1.52366E-04  7.61798E-04  6.99979E-05  1.26056E-03  1.17683E-04
  -28.7000  1.05924E-04  1.05739E-05  1.30956E-04  1.30956E-04  1.30991E-04  3.92904E-04  4.07776E-05  1.53389E-04  1.53507E-04  1.53313E-04  1.53313E-04  1.53389E-04  7.66911E-04  7.56346E-05  1.26574E-03  1.26986E-04
  -28.6000  1.06442E-04  1.13562E-05  1.30814E-04  1.30814E-04  1.30849E-04  3.92476E-04  4.36622E-05  1.54423E-04  1.54542E-04  1.54346E-04  1.54346E-04  1.54423E-04  7.72080E-04  8.13093E-05  1.27100E-03  1.36328E-04
  -28.5000  1.06967E-04  1.21424E-05  1.30678E-04  1.30678E-04  1.30713E-04  3.92068E-04  4.65439E-05  1.55468E-04  1.55589E-04  1.55390E-04  1.55390E-04  1.55468E-04  7.77305E-04  8.70224E-05  1.27634E-03  1.45709E-04
  -28.4000  1.07498E-04  1.29325E-05  1.30548E-04  1.30548E-04  1.30583E-04  3.91678E-04  4.94226E-05  1.56524E-04  1.56646E-04  1.56446E-04  1.56446E-04  1.56524E-04  7.82587E-04  9.27743E-05  1.28176E-03  1.55129E-04
  -28.3000  1.08037E-04  1.37266E-05  1.30424E-04  1.30424E-04  1.30460E-04  3.91307E-04  5.22987E-05  1.57593E-04  1.57716E-04  1.57513E-04  1.57513E-04  1.57593E-04  7.87927E-04  9.85655E-05  1.28727E-03  1.64591E-04
  -28.2000  1.08582E-04  1.45246E-05  1.30306E-04  1.30306E-04  1.30342E-04  3.90954E-04  5.51722E-05  1.58672E-04  1.58797E-04  1.58592E-04  1.58592E-04  1.58672E-04  7.93326E-04  1.04396E-04  1.29286E-03  1.74093E-04
  -28.1000  1.09134E-04  1.53267E-05  1.30195E-04  1.30195E-04  1.30231E-04  3.90621E-04  5.80432E-05  1.59764E-04  1.59890E-04  1.59683E-04  1.59683E-04  1.59764E-04  7.98785E-04  1.10267E-04  1.29854E-03  1.83637E-04
  -28.0000  1.09694E-04  1.61330E-05  1.30089E-04  1.30089E-04  1.30126E-04  3.90305E-04  6.09119E-05  1.60868E-04  1.60995E-04  1.60786E-04  1.60786E-04  1.60868E-04  8.04305E-04  1.16179E-04  1.30430E-03  1.93224E-04
  -27.9000  1.10260E-04  1.69434E-05  1.29990E-04  1.29990E-04  1.30028E-04  3.90009E-04  6.37784E-05  1.61985E-04  1.62113E-04  1.61902E-04  1.61902E-04  1.61985E-04  8.09887E-04  1.22131E-04  1.31016E-03  2.02853E-04
  -27.8000  1.10835E-04  1.77580E-05  1.29898E-04  1.29898E-04  1.29935E-04  3.89731E-04  6.66428E-05  1.63114E-04  1.63243E-04  1.63030E-04  1.63030E-04  1.63114E-04  8.15530E-04  1.28125E-04  1.31610E-03  2.12526E-04
  -27.7000  1.11416E-04  1.85769E-05  1.29811E-04  1.29811E-04  1.29849E-04  3.89471E-04  6.95054E-05  1.64255E-04  1.64386E-04  1.64171E-04  1.64171E-04  1.64255E-04  8.21237E-04  1.34161E-04  1.32213E-03  2.22244E-04
  -27.6000  1.12006E-04  1.94001E-05  1.29731E-04  1.29731E-04  1.29769E-04  3.89231E-04  7.23662E-05  1.65410E-04  1.65542E-04  1.65324E-04  1.65324E-04  1.65410E-04  8.27009E-04  1.40240E-04  1.32825E-03  2.32006E-04
  -27.5000  1.12603E-04  2.02277E-05  1.29657E-04  1.29657E-04  1.29695E-04  3.89009E-04  7.52253E-05  1.66577E-04  1.66711E-04  1.66491E-04  1.66491E-04  1.66577E-04  8.32847E-04  1.46361E-04  1.33446E-03  2.41814E-04
  -27.4000  1.13208E-04  2.10598E-05  1.29589E-04  1.29589E-04  1.29628E-04  3.88806E-04  7.80830E-05  1.67758E-04  1.67893E-04  1.67671E-04  1.67671E-04  1.67758E-04  8.38751E-04  1.52526E-04  1.34076E-03  2.51669E-04
  -27.3000  1.13821E-04  2.18964E-05  1.29527E-04  1.29527E-04  1.29566E-04  3.88621E-04  8.09393E-05  1.68953E-04  1.69089E-04  1.68865E-04  1.68865E-04  1.68953E-04  8.44723E-04  1.58734E-04  1.34716E-03  2.61570E-04
  -27.2000  1.14442E-04  2.27375E-05  1.29472E-04  1.29472E-04  1.29511E-04  3.88455E-04  8.37944E-05  1.70161E-04  1.70299E-04  1.70072E-04  1.70072E-04  1.70161E-04  8.50764E-04  1.64987E-04  1.35366E-03  2.71519E-04
  -27.1000  1.15071E-04  2.35832E-05  1.29423E-04  1.29423E-04  1.29463E-04  3.88308E-04  8.66484E-05  1.71383E-04  1.71522E-04  1.71293E-04  1.71293E-04  1.71383E-04  8.56875E-04  1.71285E-04  1.36025E-03  2.81517E-04
  -27.0000  1.15709E-04  2.44337E-05  1.29380E-04  1.29380E-04  1.29420E-04  3.88180E-04  8.95015E-05  1.72619E-04  1.72760E-04  1.72528E-04  1.72528E-04  1.72619E-04  8.63055E-04  1.77629E-04  1.36694E-03  2.91564E-04
  -26.9000  1.16355E-04  2.52889E-05  1.29343E-04  1.29343E-04  1.29384E-04  3.88070E-04  9.23538E-05  1.73870E-04  1.74012E-04  1.73778E-04  1.73778E-04  1.73870E-04  8.69307E-04  1.84018E-04  1.37373E-03  3.01661E-04
  -26.8000  1.17010E-04  2.61489E-05  1.29313E-04  1.29313E-04  1.29354E-04  3.87979E-04  9.52054E-05  1.75135E-04  1.75279E-04  1.75042E-04  1.75042E-04  1.75135E-04  8.75633E-04  1.90454E-04  1.38062E-03  3.11808E-04
  -26.7000  1.17674E-04  2.70138E-05  1.29289E-04  1.29289E-04  1.29330E-04  3.87908E-04  9.80564E-05  1.76415E-04  1.76560E-04  1.76321E-04  1.76321E-04  1.76415E-04  8.82033E-04  1.96937E-04  1.38761E-03  3.22007E-04
  -26.6000  1.18347E-04  2.78836E-05  1.29271E-04  1.29271E-04  1.29313E-04  3.87855E-04  1.00907E-04  1.77710E-04  1.77857E-04  1.77616E-04  1.77616E-04  1.77710E-04  8.88510E-04  2.03467E-04  1.39471E-03  3.32258E-04
  -26.5000  1.19029E-04  2.87585E-05  1.29260E-04  1.29260E-04  1.29302E-04  3.87821E-04  1.03758E-04  1.79021E-04  1.79170E-04  1.78925E-04  1.78925E-04  1.79021E-04  8.95063E-04  2.10046E-04  1.40191E-03  3.42562E-04
  -26.4000  1.19720E-04  2.96384E-05  1.29255E-04  1.29255E-04  1.29297E-04  3.87807E-04  1.06608E-04  1.80347E-04  1.80497E-04  1.80251E-04  1.80251E-04  1.80347E-04  9.01693E-04  2.16673E-04  1.40922E-03  3.52919E-04
  -26.3000  1.20421E-04  3.05235E-05  1.29256E-04  1.29256E-04  1.29299E-04  3.87811E-04  1.09458E-04  1.81689E-04  1.81841E-04  1.81592E-04  1.81592E-04  1.81689E-04  9.08403E-04  2.23350E-04  1.41664E-03  3.63331E-04
  -26.2000  1.21131E-04  3.14138E-05  1.29264E-04  1.29264E-04  1.29307E-04  3.87835E-04  1.12309E-04  1.83048E-04  1.83201E-04  1.82949E-04  1.82949E-04  1.83048E-04  9.15194E-04  2.30076E-04  1.42416E-03  3.73799E-04
  -26.1000  1.21852E-04  3.23094E-05  1.29278E-04  1.29278E-04  1.29322E-04  3.87878E-04  1.15160E-04  1.84422E-04  1.84577E-04  1.84322E-04  1.84322E-04  1.84422E-04  9.22067E-04  2.36853E-04  1.43180E-03  3.84322E-04
  -26.0000  1.22582E-04  3.32103E-05  1.29299E-04  1.29299E-04  1.29343E-04  3.87940E-04  1.18011E-04  1.85814E-04  1.85971E-04  1.85713E-04  1.85713E-04  1.85814E-04  9.29023E-04  2.43681E-04  1.43955E-03  3.94903E-04
  -25.9000  1.23322E-04  3.41167E-05  1.29326E-04  1.29326E-04  1.29370E-04  3.88022E-04  1.20863E-04  1.87222E-04  1.87381E-04  1.87120E-04  1.87120E-04  1.87222E-04  9.36065E-04  2.50561E-04  1.44741E-03  4.05541E-04
  -25.8000  1.24073E-04  3.50286E-05  1.29360E-04  1.29360E-04  1.29404E-04  3.88124E-04  1.23715E-04  1.88648E-04  1.88808E-04  1.88544E-04  1.88544E-04  1.88648E-04  9.43192E-04  2.57494E-04  1.45539E-03  4.16238E-04
  -25.7000  1.24835E-04  3.59462E-05  1.29400E-04  1.29400E-04  1.29445E-04  3.88245E-04  1.26569E-04  1.90091E-04  1.90253E-04  1.89986E-04  1.89986E-04  1.90091E-04  9.50406E-04  2.64479E-04  1.46349E-03  4.26994E-04
  -25.6000  1.25606E-04  3.68694E-05  1.29447E-04  1.29447E-04  1.29492E-04  3.88385E-04  1.29424E-04  1.91551E-04  1.91715E-04  1.91445E-04  1.91445E-04  1.91551E-04  9.57707E-04  2.71518E-04  1.47170E-03  4.37811E-04
  -25.5000  1.26389E-04  3.77983E-05  1.29500E-04  1.29500E-04  1.29546E-04  3.88546E-04  1.32279E-04  1.93029E-04  1.93195E-04  1.92923E-04  1.92923E-04  1.93029E-04  9.65099E-04  2.78611E-04  1.48003E-03  4.48689E-04
  -25.4000  1.27182E-04  3.87331E-05  1.29560E-04  1.29560E-04  1.29606E-04  3.88726E-04  1.35136E-04  1.94527E-04  1.94694E-04  1.94419E-04  1.94419E-04  1.94527E-04  9.72585E-04  2.85760E-04  1.48849E-03  4.59629E-04
  -25.3000  1.27988E-04  3.96738E-05  1.29627E-04  1.29627E-04  1.29673E-04  3.88926E-04  1.37995E-04  1.96043E-04  1.96212E-04  1.95933E-04  1.95933E-04  1.96043E-04  9.80164E-04  2.92964E-04  1.49708E-03  4.70633E-04
  -25.2000  1.28804E-04  4.06205E-05  1.29700E-04  1.29700E-04  1.29747E-04  3.89147E-04  1.40855E-04  1.97578E-04  1.97749E-04  1.97467E-04  1.97467E-04  1.97578E-04  9.87839E-04  3.00224E-04  1.50579E-03  4.81700E-04
  -25.1000  1.29633E-04  4.15732E-05  1.29780E-04  1.29780E-04  1.29828E-04  3.89387E-04  1.43717E-04  1.99132E-04  1.99306E-04  1.99020E-04  1.99020E-04  1.99132E-04  9.95610E-04  3.07542E-04  1.51463E-03  4.92832E-04
  -25.0000  1.30473E-04  4.25322E-05  1.29867E-04  1.29867E-04  1.29915E-04  3.89649E-04  1.46581E-04  2.00706E-04  2.00882E-04  2.00593E-04  2.00593E-04  2.00706E-04  1.00348E-03  3.14917E-04  1.52360E-03  5.04031E-04
  -24.9000  1.31325E-04  4.34974E-05  1.29961E-04  1.29961E-04  1.30009E-04  3.89930E-04  1.49447E-04  2.02300E-04  2.02478E-04  2.02186E-04  2.02186E-04  2.02300E-04  1.01145E-03  3.22351E-04  1.53271E-03  5.15296E-04
  -24.8000  1.32190E-04  4.44690E-05  1.30061E-04  1.30061E-04  1.30110E-04  3.90233E-04  1.52315E-04  2.03915E-04  2.04095E-04  2.03799E-04  2.03799E-04  2.03915E-04  1.01952E-03  3.29845E-04  1.54195E-03  5.26629E-04
  -24.7000  1.33068E-04  4.54470E-05  1.30169E-04  1.30169E-04  1.30218E-04  3.90556E-04  1.55186E-04  2.05550E-04  2.05732E-04  2.05433E-04  2.05433E-04  2.05550E-04  1.02770E-03  3.37398E-04  1.55132E-03  5.38031E-04
  -24.6000  1.33958E-04  4.64316E-05  1.30283E-04  1.30283E-04  1.30333E-04  3.90900E-04  1.58059E-04  2.07207E-04  2.07391E-04  2.07088E-04  2.07088E-04  2.07207E-04  1.03598E-03  3.45012E-04  1.56084E-03  5.49503E-04
  -24.5000  1.34862E-04  4.74228E-05  1.30405E-04  1.30405E-04  1.30455E-04  3.91265E-04  1.60934E-04  2.08885E-04  2.09071E-04  2.08765E-04  2.08765E-04  2.08885E-04  1.04437E-03  3.52688E-04  1.57050E-03  5.61046E-04
  -24.4000  1.35779E-04  4.84208E-05  1.30534E-04  1.30534E-04  1.30584E-04  3.91652E-04  1.63813E-04  2.10585E-04  2.10773E-04  2.10464E-04  2.10464E-04  2.10585E-04  1.05287E-03  3.60427E-04  1.58030E-03  5.72661E-04
  -24.3000  1.36709E-04  4.94256E-05  1.30669E-04  1.30669E-04  1.30720E-04  3.92059E-04  1.66695E-04  2.12306E-04  2.12496E-04  2.12183E-04  2.12183E-04  2.12306E-04  1.06148E-03  3.68229E-04  1.59024E-03  5.84349E-04
  -24.2000  1.37653E-04  5.04373E-05  1.30812E-04  1.30812E-04  1.30864E-04  3.92488E-04  1.69579E-04  2.14050E-04  2.14243E-04  2.13926E-04  2.13926E-04  2.14050E-04  1.07020E-03  3.76094E-04  1.60034E-03  5.96111E-04
  -24.1000  1.38611E-04  5.14561E-05  1.30962E-04  1.30962E-04  1.31014E-04  3.92939E-04  1.72467E-04  2.15818E-04  2.16013E-04  2.15693E-04  2.15693E-04  2.15818E-04  1.07903E-03  3.84025E-04  1.61058E-03  6.07949E-04
  -24.0000  1.39584E-04  5.24820E-05  1.31120E-04  1.31120E-04  1.31172E-04  3.93411E-04  1.75359E-04  2.17609E-04  2.17807E-04  2.17482E-04  2.17482E-04  2.17609E-04  1.08799E-03  3.92022E-04  1.62099E-03  6.19863E-04
  -23.9000  1.40572E-04  5.35152E-05  1.31284E-04  1.31284E-04  1.31337E-04  3.93906E-04  1.78254E-04  2.19425E-04  2.19625E-04  2.19296E-04  2.19296E-04  2.19425E-04  1.09707E-03  4.00085E-04  1.63154E-03  6.31854E-04
  -23.8000  1.41574E-04  5.45557E-05  1.31457E-04  1.31457E-04  1.31510E-04  3.94423E-04  1.81153E-04  2.21264E-04  2.21467E-04  2.21134E-04  2.21134E-04  2.21264E-04  1.10626E-03  4.08216E-04  1.64226E-03  6.43925E-04
  -23.7000  1.42592E-04  5.56038E-05  1.31636E-04  1.31636E-04  1.31690E-04  3.94963E-04  1.84056E-04  2.23129E-04  2.23333E-04  2.22997E-04  2.22997E-04  2.23129E-04  1.11558E-03  4.16415E-04  1.65314E-03  6.56075E-04
  -23.6000  1.43626E-04  5.66594E-05  1.31824E-04  1.31824E-04  1.31878E-04  3.95526E-04  1.86963E-04  2.25018E-04  2.25226E-04  2.24885E-04  2.24885E-04  2.25018E-04  1.12503E-03  4.24684E-04  1.66418E-03  6.68307E-04
  -23.5000  1.44676E-04  5.77227E-05  1.32019E-04  1.32019E-04  1.32074E-04  3.96111E-04  1.89874E-04  2.26934E-04  2.27144E-04  2.26799E-04  2.26799E-04  2.26934E-04  1.13461E-03  4.33023E-04  1.67540E-03  6.80620E-04
  -23.4000  1.45742E-04  5.87939E-05  1.32221E-04  1.32221E-04  1.32277E-04  3.96720E-04  1.92790E-04  2.28875E-04  2.29088E-04  2.28739E-04  2.28739E-04  2.28875E-04  1.14432E-03  4.41434E-04  1.68678E-03  6.93018E-04
  -23.3000  1.46825E-04  5.98731E-05  1.32432E-04  1.32432E-04  1.32488E-04  3.97352E-04  1.95711E-04  2.30844E-04  2.31059E-04  2.30706E-04  2.30706E-04  2.30844E-04  1.15416E-03  4.49917E-04  1.69833E-03  7.05501E-04
  -23.2000  1.47924E-04  6.09603E-05  1.32650E-04  1.32650E-04  1.32707E-04  3.98007E-04  1.98636E-04  2.32840E-04  2.33058E-04  2.32700E-04  2.32700E-04  2.32840E-04  1.16414E-03  4.58473E-04  1.71007E-03  7.18069E-04
  -23.1000  1.49041E-04  6.20557E-05  1.32876E-04  1.32876E-04  1.32933E-04  3.98686E-04  2.01566E-04  2.34862E-04  2.35083E-04  2.34721E-04  2.34721E-04  2.34862E-04  1.17425E-03  4.67104E-04  1.72198E-03  7.30726E-04
  -23.0000  1.50174E-04  6.31595E-05  1.33110E-04  1.33110E-04  1.33168E-04  3.99388E-04  2.04502E-04  2.36913E-04  2.37137E-04  2.36770E-04  2.36770E-04  2.36913E-04  1.18450E-03  4.75810E-04  1.73407E-03  7.43471E-04
  -22.9000  1.51327E-04  6.42717E-05  1.33352E-04  1.33352E-04  1.33411E-04  4.00116E-04  2.07442E-04  2.38993E-04  2.39220E-04  2.38849E-04  2.38849E-04  2.38993E-04  1.19490E-03  4.84592E-04  1.74635E-03  7.56306E-04
  -22.8000  1.52498E-04  6.53926E-05  1.33603E-04  1.33603E-04  1.33662E-04  4.00868E-04  2.10389E-04  2.41103E-04  2.41332E-04  2.40957E-04  2.40957E-04  2.41103E-04  1.20545E-03  4.93452E-04  1.75882E-03  7.69233E-04
  -22.7000  1.53688E-04  6.65221E-05  1.33862E-04  1.33862E-04  1.33921E-04  4.01645E-04  2.13341E-04  2.43243E-04  2.43475E-04  2.43095E-04  2.43095E-04  2.43243E-04  1.21615E-03  5.02390E-04  1.77148E-03  7.82253E-04
  -22.6000  1.54897E-04  6.76606E-05  1.34129E-04  1.34129E-04  1.34189E-04  4.02447E-04  2.16299E-04  2.45413E-04  2.45648E-04  2.45263E-04  2.45263E-04  2.45413E-04  1.22700E-03  5.11409E-04  1.78434E-03  7.95368E-04
  -22.5000  1.56126E-04  6.88081E-05  1.34404E-04  1.34404E-04  1.34465E-04  4.03274E-04  2.19263E-04  2.47614E-04  2.47852E-04  2.47462E-04  2.47462E-04  2.47614E-04  1.23801E-03  5.20508E-04  1.79741E-03  8.08579E-04
  -22.4000  1.57375E-04  6.99648E-05  1.34689E-04  1.34689E-04  1.34750E-04  4.04128E-04  2.22233E-04  2.49847E-04  2.50089E-04  2.49693E-04  2.49693E-04  2.49847E-04  1.24917E-03  5.29689E-04  1.81067E-03  8.21887E-04
  -22.3000  1.58645E-04  7.11308E-05  1.34982E-04  1.34982E-04  1.35044E-04  4.05007E-04  2.25210E-04  2.52113E-04  2.52357E-04  2.51957E-04  2.51957E-04  2.52113E-04  1.26050E-03  5.38954E-04  1.82415E-03  8.35294E-04
  -22.2000  1.59936E-04  7.23063E-05  1.35284E-04  1.35284E-04  1.35346E-04  4.05914E-04  2.28193E-04  2.54411E-04  2.54659E-04  2.54253E-04  2.54253E-04  2.54411E-04  1.27199E-03  5.48303E-04  1.83784E-03  8.48802E-04
  -22.1000  1.61248E-04  7.34915E-05  1.35594E-04  1.35594E-04  1.35658E-04  4.06846E-04  2.31184E-04  2.56744E-04  2.56995E-04  2.56584E-04  2.56584E-04  2.56744E-04  1.28365E-03  5.57737E-04  1.85174E-03  8.62412E-04
  -22.0000  1.62583E-04  7.46864E-05  1.35914E-04  1.35914E-04  1.35978E-04  4.07806E-04  2.34181E-04  2.59110E-04  2.59365E-04  2.58948E-04  2.58948E-04  2.59110E-04  1.29548E-03  5.67259E-04  1.86587E-03  8.76126E-04
  -21.9000  1.63938E-04  7.58914E-05  1.36242E-04  1.36242E-04  1.36307E-04  4.08792E-04  2.37185E-04  2.61510E-04  2.61768E-04  2.61346E-04  2.61346E-04  2.61510E-04  1.30748E-03  5.76869E-04  1.88021E-03  8.89945E-04
  -21.8000  1.65317E-04  7.71064E-05  1.36580E-04  1.36580E-04  1.36645E-04  4.09806E-04  2.40197E-04  2.63947E-04  2.64208E-04  2.63781E-04  2.63781E-04  2.63947E-04  1.31966E-03  5.86568E-04  1.89479E-03  9.03872E-04
  -21.7000  1.66720E-04  7.83318E-05  1.36928E-04  1.36928E-04  1.36994E-04  4.10849E-04  2.43217E-04  2.66420E-04  2.66685E-04  2.66252E-04  2.66252E-04  2.66420E-04  1.33203E-03  5.96358E-04  1.90960E-03  9.17907E-04
  -21.6000  1.68147E-04  7.95677E-05  1.37284E-04  1.37284E-04  1.37351E-04  4.11920E-04  2.46245E-04  2.68931E-04  2.69199E-04  2.68761E-04  2.68761E-04  2.68931E-04  1.34458E-03  6.06241E-04  1.92465E-03  9.32053E-04
  -21.5000  1.69599E-04  8.08142E-05  1.37651E-04  1.37651E-04  1.37718E-04  4.13020E-04  2.49280E-04  2.71480E-04  2.71751E-04  2.71307E-04  2.71307E-04  2.71480E-04  1.35732E-03  6.16217E-04  1.93994E-03  9.46311E-04
  -21.4000  1.71076E-04  8.20716E-05  1.38027E-04  1.38027E-04  1.38095E-04  4.14149E-04  2.52324E-04  2.74067E-04  2.74342E-04  2.73892E-04  2.73892E-04  2.74067E-04  1.37026E-03  6.26288E-04  1.95549E-03  9.60684E-04
  -21.3000  1.72580E-04  8.33400E-05  1.38413E-04  1.38413E-04  1.38482E-04  4.15309E-04  2.55377E-04  2.76694E-04  2.76973E-04  2.76517E-04  2.76517E-04  2.76694E-04  1.38339E-03  6.36456E-04  1.97128E-03  9.75173E-04
  -21.2000  1.74109E-04  8.46197E-05  1.38810E-04  1.38810E-04  1.38879E-04  4.16499E-04  2.58438E-04  2.79361E-04  2.79644E-04  2.79182E-04  2.79182E-04  2.79361E-04  1.39673E-03  6.46722E-04  1.98734E-03  9.89779E-04
  -21.1000  1.75666E-04  8.59108E-05  1.39216E-04  1.39216E-04  1.39286E-04  4.17719E-04  2.61508E-04  2.82070E-04  2.82357E-04  2.81889E-04  2.81889E-04  2.82070E-04  1.41028E-03  6.57087E-04  2.00366E-03  1.00451E-03
