    Energy      s          Int(s)         px           py           pz           p          Int(p)       dx2-y2        dz2          dyz          dxz          dxy           d          Int(d)       total      Int(total) 
  -30.0000  7.30223E-05  5.36704E-07  1.06732E-04  1.06732E-04  1.06732E-04  3.20195E-04  2.35339E-06  1.35614E-04  1.35614E-04  1.40608E-04  1.40608E-04  1.40608E-04  6.93052E-04  5.09384E-06  1.08627E-03  7.98394E-06
  -29.9000  7.33708E-05  1.07597E-06  1.06513E-04  1.06513E-04  1.06513E-04  3.19538E-04  4.70195E-06  1.36543E-04  1.36543E-04  1.41624E-04  1.41624E-04  1.41624E-04  6.97959E-04  1.02237E-05  1.09087E-03  1.60017E-05
  -29.8000  7.37257E-05  1.61784E-06  1.06300E-04  1.06300E-04  1.06300E-04  3.18899E-04  7.04581E-06  1.37482E-04  1.37482E-04  1.42653E-04  1.42653E-04  1.42653E-04  7.02923E-04  1.53901E-05  1.09555E-03  2.40538E-05
  -29.7000  7.40873E-05  2.16237E-06  1.06092E-04  1.06092E-04  1.06092E-04  3.18277E-04  9.38511E-06  1.38431E-04  1.38431E-04  1.43695E-04  1.43695E-04  1.43695E-04  7.07945E-04  2.05934E-05  1.10031E-03  3.21409E-05
  -29.6000  7.44556E-05  2.70961E-06  1.05891E-04  1.05891E-04  1.05891E-04  3.17674E-04  1.17200E-05  1.39390E-04  1.39390E-04  1.44749E-04  1.44749E-04  1.44749E-04  7.13026E-04  2.58341E-05  1.10516E-03  4.02637E-05
  -29.5000  7.48309E-05  3.25961E-06  1.05696E-04  1.05696E-04  1.05696E-04  3.17089E-04  1.40505E-05  1.40360E-04  1.40360E-04  1.45815E-04  1.45815E-04  1.45815E-04  7.18167E-04  3.11125E-05  1.11009E-03  4.84227E-05
  -29.4000  7.52133E-05  3.81242E-06  1.05507E-04  1.05507E-04  1.05507E-04  3.16522E-04  1.63769E-05  1.41341E-04  1.41341E-04  1.46896E-04  1.46896E-04  1.46896E-04  7.23369E-04  3.64292E-05  1.11510E-03  5.66185E-05
  -29.3000  7.56031E-05  4.36809E-06  1.05325E-04  1.05325E-04  1.05325E-04  3.15974E-04  1.86993E-05  1.42333E-04  1.42333E-04  1.47989E-04  1.47989E-04  1.47989E-04  7.28632E-04  4.17845E-05  1.12021E-03  6.48519E-05
  -29.2000  7.60003E-05  4.92668E-06  1.05148E-04  1.05148E-04  1.05148E-04  3.15444E-04  2.10178E-05  1.43335E-04  1.43335E-04  1.49096E-04  1.49096E-04  1.49096E-04  7.33959E-04  4.71790E-05  1.12540E-03  7.31235E-05
  -29.1000  7.64055E-05  5.48825E-06  1.04978E-04  1.04978E-04  1.04978E-04  3.14934E-04  2.33325E-05  1.44349E-04  1.44349E-04  1.50217E-04  1.50217E-04  1.50217E-04  7.39350E-04  5.26131E-05  1.13069E-03  8.14339E-05
  -29.0000  7.68185E-05  6.05286E-06  1.04814E-04  1.04814E-04  1.04814E-04  3.14442E-04  2.56436E-05  1.45375E-04  1.45375E-04  1.51353E-04  1.51353E-04  1.51353E-04  7.44807E-04  5.80874E-05  1.13607E-03  8.97838E-05
  -28.9000  7.72396E-05  6.62056E-06  1.04656E-04  1.04656E-04  1.04656E-04  3.13968E-04  2.79512E-05  1.46412E-04  1.46412E-04  1.52502E-04  1.52502E-04  1.52502E-04  7.50330E-04  6.36022E-05  1.14154E-03  9.81740E-05
  -28.8000  7.76692E-05  7.19142E-06  1.04505E-04  1.04505E-04  1.04505E-04  3.13514E-04  3.02555E-05  1.47460E-04  1.47460E-04  1.53667E-04  1.53667E-04  1.53667E-04  7.55921E-04  6.91581E-05  1.14710E-03  1.06605E-04
  -28.7000  7.81072E-05  7.76549E-06  1.04360E-04  1.04360E-04  1.04360E-04  3.13080E-04  3.25566E-05  1.48521E-04  1.48521E-04  1.54846E-04  1.54846E-04  1.54846E-04  7.61581E-04  7.47556E-05  1.15277E-03  1.15078E-04
  -28.6000  7.85542E-05  8.34286E-06  1.04221E-04  1.04221E-04  1.04221E-04  3.12664E-04  3.48546E-05  1.49594E-04  1.49594E-04  1.56041E-04  1.56041E-04  1.56041E-04  7.67312E-04  8.03953E-05  1.15853E-03  1.23593E-04
  -28.5000  7.90102E-05  8.92357E-06  1.04090E-04  1.04090E-04  1.04090E-04  3.12269E-04  3.71498E-05  1.50679E-04  1.50679E-04  1.57252E-04  1.57252E-04  1.57252E-04  7.73114E-04  8.60776E-05  1.16439E-03  1.32151E-04
  -28.4000  7.94755E-05  9.50771E-06  1.03964E-04  1.03964E-04  1.03964E-04  3.11893E-04  3.94421E-05  1.51777E-04  1.51777E-04  1.58478E-04  1.58478E-04  1.58478E-04  7.78989E-04  9.18030E-05  1.17036E-03  1.40753E-04
  -28.3000  7.99505E-05  1.00953E-05  1.03846E-04  1.03846E-04  1.03846E-04  3.11537E-04  4.17319E-05  1.52888E-04  1.52888E-04  1.59721E-04  1.59721E-04  1.59721E-04  7.84938E-04  9.75722E-05  1.17643E-03  1.49399E-04
  -28.2000  8.04353E-05  1.06865E-05  1.03734E-04  1.03734E-04  1.03734E-04  3.11201E-04  4.40192E-05  1.54011E-04  1.54011E-04  1.60980E-04  1.60980E-04  1.60980E-04  7.90963E-04  1.03386E-04  1.18260E-03  1.58091E-04
  -28.1000  8.09304E-05  1.12813E-05  1.03629E-04  1.03629E-04  1.03629E-04  3.10886E-04  4.63042E-05  1.55148E-04  1.55148E-04  1.62256E-04  1.62256E-04  1.62256E-04  7.97065E-04  1.09244E-04  1.18888E-03  1.66829E-04
  -28.0000  8.14360E-05  1.18799E-05  1.03531E-04  1.03531E-04  1.03531E-04  3.10592E-04  4.85870E-05  1.56298E-04  1.56298E-04  1.63550E-04  1.63550E-04  1.63550E-04  8.03245E-04  1.15148E-04  1.19527E-03  1.75615E-04
  -27.9000  8.19524E-05  1.24822E-05  1.03440E-04  1.03440E-04  1.03440E-04  3.10319E-04  5.08678E-05  1.57462E-04  1.57462E-04  1.64860E-04  1.64860E-04  1.64860E-04  8.09504E-04  1.21097E-04  1.20178E-03  1.84447E-04
  -27.8000  8.24798E-05  1.30884E-05  1.03356E-04  1.03356E-04  1.03356E-04  3.10067E-04  5.31467E-05  1.58639E-04  1.58639E-04  1.66189E-04  1.66189E-04  1.66189E-04  8.15844E-04  1.27094E-04  1.20839E-03  1.93329E-04
  -27.7000  8.30190E-05  1.36986E-05  1.03279E-04  1.03279E-04  1.03279E-04  3.09838E-04  5.54240E-05  1.59830E-04  1.59830E-04  1.67536E-04  1.67536E-04  1.67536E-04  8.22267E-04  1.33137E-04  1.21512E-03  2.02260E-04
  -27.6000  8.35702E-05  1.43129E-05  1.03210E-04  1.03210E-04  1.03210E-04  3.09630E-04  5.76997E-05  1.61035E-04  1.61035E-04  1.68902E-04  1.68902E-04  1.68902E-04  8.28775E-04  1.39229E-04  1.22198E-03  2.11241E-04
  -27.5000  8.41335E-05  1.49312E-05  1.03148E-04  1.03148E-04  1.03148E-04  3.09445E-04  5.99741E-05  1.62255E-04  1.62255E-04  1.70286E-04  1.70286E-04  1.70286E-04  8.35369E-04  1.45369E-04  1.22895E-03  2.20274E-04
  -27.4000  8.47095E-05  1.55538E-05  1.03094E-04  1.03094E-04  1.03094E-04  3.09282E-04  6.22473E-05  1.63489E-04  1.63489E-04  1.71691E-04  1.71691E-04  1.71691E-04  8.42051E-04  1.51558E-04  1.23604E-03  2.29359E-04
  -27.3000  8.52986E-05  1.61808E-05  1.03048E-04  1.03048E-04  1.03048E-04  3.09143E-04  6.45194E-05  1.64739E-04  1.64739E-04  1.73115E-04  1.73115E-04  1.73115E-04  8.48823E-04  1.57796E-04  1.24326E-03  2.38497E-04
  -27.2000  8.59012E-05  1.68121E-05  1.03009E-04  1.03009E-04  1.03009E-04  3.09027E-04  6.67907E-05  1.66003E-04  1.66003E-04  1.74560E-04  1.74560E-04  1.74560E-04  8.55687E-04  1.64085E-04  1.25061E-03  2.47688E-04
  -27.1000  8.65177E-05  1.74480E-05  1.02978E-04  1.02978E-04  1.02978E-04  3.08935E-04  6.90614E-05  1.67284E-04  1.67284E-04  1.76026E-04  1.76026E-04  1.76026E-04  8.62644E-04  1.70426E-04  1.25810E-03  2.56935E-04
  -27.0000  8.71486E-05  1.80885E-05  1.02956E-04  1.02956E-04  1.02956E-04  3.08867E-04  7.13315E-05  1.68579E-04  1.68579E-04  1.77513E-04  1.77513E-04  1.77513E-04  8.69696E-04  1.76818E-04  1.26571E-03  2.66238E-04
  -26.9000  8.77945E-05  1.87338E-05  1.02941E-04  1.02941E-04  1.02941E-04  3.08824E-04  7.36013E-05  1.69891E-04  1.69891E-04  1.79021E-04  1.79021E-04  1.79021E-04  8.76846E-04  1.83263E-04  1.27346E-03  2.75598E-04
  -26.8000  8.84559E-05  1.93840E-05  1.02936E-04  1.02936E-04  1.02936E-04  3.08807E-04  7.58710E-05  1.71219E-04  1.71219E-04  1.80552E-04  1.80552E-04  1.80552E-04  8.84096E-04  1.89761E-04  1.28136E-03  2.85016E-04
  -26.7000  8.91333E-05  2.00391E-05  1.02938E-04  1.02938E-04  1.02938E-04  3.08815E-04  7.81407E-05  1.72564E-04  1.72564E-04  1.82106E-04  1.82106E-04  1.82106E-04  8.91447E-04  1.96313E-04  1.28939E-03  2.94492E-04
  -26.6000  8.98273E-05  2.06993E-05  1.02950E-04  1.02950E-04  1.02950E-04  3.08850E-04  8.04108E-05  1.73925E-04  1.73925E-04  1.83684E-04  1.83684E-04  1.83684E-04  8.98901E-04  2.02919E-04  1.29758E-03  3.04030E-04
  -26.5000  9.05386E-05  2.13647E-05  1.02971E-04  1.02971E-04  1.02971E-04  3.08913E-04  8.26812E-05  1.75304E-04  1.75304E-04  1.85285E-04  1.85285E-04  1.85285E-04  9.06462E-04  2.09582E-04  1.30591E-03  3.13628E-04
  -26.4000  9.12677E-05  2.20355E-05  1.03001E-04  1.03001E-04  1.03001E-04  3.09003E-04  8.49523E-05  1.76699E-04  1.76699E-04  1.86911E-04  1.86911E-04  1.86911E-04  9.14130E-04  2.16301E-04  1.31440E-03  3.23288E-04
  -26.3000  9.20155E-05  2.27118E-05  1.03041E-04  1.03041E-04  1.03041E-04  3.09122E-04  8.72244E-05  1.78112E-04  1.78112E-04  1.88561E-04  1.88561E-04  1.88561E-04  9.21906E-04  2.23076E-04  1.32304E-03  3.33013E-04
  -26.2000  9.27824E-05  2.33938E-05  1.03090E-04  1.03090E-04  1.03090E-04  3.09270E-04  8.94974E-05  1.79543E-04  1.79543E-04  1.90237E-04  1.90237E-04  1.90237E-04  9.29796E-04  2.29910E-04  1.33185E-03  3.42802E-04
  -26.1000  9.35693E-05  2.40815E-05  1.03149E-04  1.03149E-04  1.03149E-04  3.09448E-04  9.17718E-05  1.80992E-04  1.80992E-04  1.91939E-04  1.91939E-04  1.91939E-04  9.37802E-04  2.36803E-04  1.34082E-03  3.52656E-04
  -26.0000  9.43770E-05  2.47752E-05  1.03219E-04  1.03219E-04  1.03219E-04  3.09657E-04  9.40478E-05  1.82460E-04  1.82460E-04  1.93669E-04  1.93669E-04  1.93669E-04  9.45927E-04  2.43755E-04  1.34996E-03  3.62578E-04
  -25.9000  9.52063E-05  2.54749E-05  1.03299E-04  1.03299E-04  1.03299E-04  3.09897E-04  9.63255E-05  1.83947E-04  1.83947E-04  1.95427E-04  1.95427E-04  1.95427E-04  9.54173E-04  2.50769E-04  1.35928E-03  3.72569E-04
  -25.8000  9.60580E-05  2.61809E-05  1.03390E-04  1.03390E-04  1.03390E-04  3.10170E-04  9.86052E-05  1.85453E-04  1.85453E-04  1.97212E-04  1.97212E-04  1.97212E-04  9.62542E-04  2.57843E-04  1.36877E-03  3.82629E-04
  -25.7000  9.69330E-05  2.68934E-05  1.03492E-04  1.03492E-04  1.03492E-04  3.10476E-04  1.00887E-04  1.86978E-04  1.86978E-04  1.99027E-04  1.99027E-04  1.99027E-04  9.71039E-04  2.64980E-04  1.37845E-03  3.92761E-04
  -25.6000  9.78322E-05  2.76124E-05  1.03605E-04  1.03605E-04  1.03605E-04  3.10816E-04  1.03172E-04  1.88524E-04  1.88524E-04  2.00872E-04  2.00872E-04  2.00872E-04  9.79665E-04  2.72180E-04  1.38831E-03  4.02965E-04
  -25.5000  9.87568E-05  2.83383E-05  1.03731E-04  1.03731E-04  1.03731E-04  3.11192E-04  1.05459E-04  1.90090E-04  1.90090E-04  2.02748E-04  2.02748E-04  2.02748E-04  9.88424E-04  2.79445E-04  1.39837E-03  4.13242E-04
  -25.4000  9.97078E-05  2.90711E-05  1.03868E-04  1.03868E-04  1.03868E-04  3.11605E-04  1.07749E-04  1.91676E-04  1.91676E-04  2.04656E-04  2.04656E-04  2.04656E-04  9.97320E-04  2.86775E-04  1.40863E-03  4.23596E-04
  -25.3000  1.00686E-04  2.98112E-05  1.04018E-04  1.04018E-04  1.04018E-04  3.12055E-04  1.10043E-04  1.93284E-04  1.93284E-04  2.06596E-04  2.06596E-04  2.06596E-04  1.00635E-03  2.94172E-04  1.41910E-03  4.34026E-04
  -25.2000  1.01694E-04  3.05586E-05  1.04181E-04  1.04181E-04  1.04181E-04  3.12544E-04  1.12340E-04  1.94913E-04  1.94913E-04  2.08569E-04  2.08569E-04  2.08569E-04  1.01553E-03  3.01636E-04  1.42977E-03  4.44534E-04
  -25.1000  1.02731E-04  3.13137E-05  1.04358E-04  1.04358E-04  1.04358E-04  3.13074E-04  1.14641E-04  1.96563E-04  1.96563E-04  2.10577E-04  2.10577E-04  2.10577E-04  1.02486E-03  3.09169E-04  1.44066E-03  4.55123E-04
  -25.0000  1.03801E-04  3.20766E-05  1.04549E-04  1.04549E-04  1.04549E-04  3.13647E-04  1.16946E-04  1.98236E-04  1.98236E-04  2.12620E-04  2.12620E-04  2.12620E-04  1.03433E-03  3.16771E-04  1.45178E-03  4.65793E-04
  -24.9000  1.04903E-04  3.28476E-05  1.04754E-04  1.04754E-04  1.04754E-04  3.14262E-04  1.19256E-04  1.99931E-04  1.99931E-04  2.14699E-04  2.14699E-04  2.14699E-04  1.04396E-03  3.24444E-04  1.46312E-03  4.76547E-04
  -24.8000  1.06039E-04  3.36270E-05  1.04974E-04  1.04974E-04  1.04974E-04  3.14921E-04  1.21571E-04  2.01649E-04  2.01649E-04  2.16816E-04  2.16816E-04  2.16816E-04  1.05374E-03  3.32189E-04  1.47470E-03  4.87386E-04
  -24.7000  1.07211E-04  3.44149E-05  1.05209E-04  1.05209E-04  1.05209E-04  3.15628E-04  1.23890E-04  2.03390E-04  2.03390E-04  2.18971E-04  2.18971E-04  2.18971E-04  1.06369E-03  3.40007E-04  1.48653E-03  4.98312E-04
  -24.6000  1.08421E-04  3.52118E-05  1.05461E-04  1.05461E-04  1.05461E-04  3.16383E-04  1.26216E-04  2.05155E-04  2.05155E-04  2.21167E-04  2.21167E-04  2.21167E-04  1.07381E-03  3.47899E-04  1.49861E-03  5.09327E-04
  -24.5000  1.09670E-04  3.60179E-05  1.05730E-04  1.05730E-04  1.05730E-04  3.17189E-04  1.28547E-04  2.06945E-04  2.06945E-04  2.23403E-04  2.23403E-04  2.23403E-04  1.08410E-03  3.55867E-04  1.51096E-03  5.20432E-04
  -24.4000  1.10961E-04  3.68334E-05  1.06015E-04  1.06015E-04  1.06015E-04  3.18046E-04  1.30885E-04  2.08759E-04  2.08759E-04  2.25683E-04  2.25683E-04  2.25683E-04  1.09457E-03  3.63912E-04  1.52357E-03  5.31630E-04
  -24.3000  1.12295E-04  3.76588E-05  1.06319E-04  1.06319E-04  1.06319E-04  3.18958E-04  1.33229E-04  2.10598E-04  2.10598E-04  2.28006E-04  2.28006E-04  2.28006E-04  1.10521E-03  3.72035E-04  1.53647E-03  5.42923E-04
  -24.2000  1.13675E-04  3.84943E-05  1.06643E-04  1.06643E-04  1.06643E-04  3.19928E-04  1.35580E-04  2.12463E-04  2.12463E-04  2.30374E-04  2.30374E-04  2.30374E-04  1.11605E-03  3.80238E-04  1.54965E-03  5.54312E-04
  -24.1000  1.15104E-04  3.93403E-05  1.06985E-04  1.06985E-04  1.06985E-04  3.20956E-04  1.37939E-04  2.14355E-04  2.14355E-04  2.32789E-04  2.32789E-04  2.32789E-04  1.12708E-03  3.88522E-04  1.56314E-03  5.65801E-04
  -24.0000  1.16583E-04  4.01972E-05  1.07349E-04  1.07349E-04  1.07349E-04  3.22047E-04  1.40306E-04  2.16273E-04  2.16273E-04  2.35253E-04  2.35253E-04  2.35253E-04  1.13831E-03  3.96888E-04  1.57694E-03  5.77392E-04
  -23.9000  1.18116E-04  4.10653E-05  1.07734E-04  1.07734E-04  1.07734E-04  3.23203E-04  1.42682E-04  2.18218E-04  2.18218E-04  2.37767E-04  2.37767E-04  2.37767E-04  1.14974E-03  4.05339E-04  1.59106E-03  5.89086E-04
  -23.8000  1.19706E-04  4.19451E-05  1.08142E-04  1.08142E-04  1.08142E-04  3.24427E-04  1.45066E-04  2.20191E-04  2.20191E-04  2.40334E-04  2.40334E-04  2.40334E-04  1.16138E-03  4.13875E-04  1.60552E-03  6.00886E-04
  -23.7000  1.21355E-04  4.28371E-05  1.08574E-04  1.08574E-04  1.08574E-04  3.25723E-04  1.47460E-04  2.22192E-04  2.22192E-04  2.42955E-04  2.42955E-04  2.42955E-04  1.17325E-03  4.22498E-04  1.62033E-03  6.12795E-04
  -23.6000  1.23067E-04  4.37416E-05  1.09031E-04  1.09031E-04  1.09031E-04  3.27094E-04  1.49864E-04  2.24222E-04  2.24222E-04  2.45632E-04  2.45632E-04  2.45632E-04  1.18534E-03  4.31210E-04  1.63550E-03  6.24816E-04
  -23.5000  1.24845E-04  4.46592E-05  1.09514E-04  1.09514E-04  1.09514E-04  3.28542E-04  1.52279E-04  2.26280E-04  2.26280E-04  2.48366E-04  2.48366E-04  2.48366E-04  1.19766E-03  4.40013E-04  1.65105E-03  6.36951E-04
  -23.4000  1.26693E-04  4.55903E-05  1.10024E-04  1.10024E-04  1.10024E-04  3.30073E-04  1.54705E-04  2.28369E-04  2.28369E-04  2.51161E-04  2.51161E-04  2.51161E-04  1.21022E-03  4.48907E-04  1.66699E-03  6.49203E-04
  -23.3000  1.28616E-04  4.65357E-05  1.10564E-04  1.10564E-04  1.10564E-04  3.31691E-04  1.57143E-04  2.30488E-04  2.30488E-04  2.54019E-04  2.54019E-04  2.54019E-04  1.22303E-03  4.57897E-04  1.68334E-03  6.61575E-04
  -23.2000  1.30618E-04  4.74957E-05  1.11134E-04  1.11134E-04  1.11134E-04  3.33401E-04  1.59593E-04  2.32638E-04  2.32638E-04  2.56943E-04  2.56943E-04  2.56943E-04  1.23610E-03  4.66982E-04  1.70012E-03  6.74071E-04
  -23.1000  1.32704E-04  4.84710E-05  1.11736E-04  1.11736E-04  1.11736E-04  3.35207E-04  1.62057E-04  2.34820E-04  2.34820E-04  2.59934E-04  2.59934E-04  2.59934E-04  1.24944E-03  4.76165E-04  1.71735E-03  6.86693E-04
  -23.0000  1.34878E-04  4.94624E-05  1.12372E-04  1.12372E-04  1.12372E-04  3.37115E-04  1.64535E-04  2.37035E-04  2.37035E-04  2.62998E-04  2.62998E-04  2.62998E-04  1.26306E-03  4.85448E-04  1.73506E-03  6.99446E-04
  -22.9000  1.37148E-04  5.04704E-05  1.13044E-04  1.13044E-04  1.13044E-04  3.39131E-04  1.67028E-04  2.39282E-04  2.39282E-04  2.66135E-04  2.66135E-04  2.66135E-04  1.27697E-03  4.94834E-04  1.75325E-03  7.12332E-04
  -22.8000  1.39519E-04  5.14958E-05  1.13754E-04  1.13754E-04  1.13754E-04  3.41261E-04  1.69536E-04  2.41564E-04  2.41564E-04  2.69351E-04  2.69351E-04  2.69351E-04  1.29118E-03  5.04324E-04  1.77196E-03  7.25356E-04
  -22.7000  1.41997E-04  5.25395E-05  1.14504E-04  1.14504E-04  1.14504E-04  3.43513E-04  1.72061E-04  2.43879E-04  2.43879E-04  2.72648E-04  2.72648E-04  2.72648E-04  1.30570E-03  5.13921E-04  1.79121E-03  7.38521E-04
  -22.6000  1.44592E-04  5.36022E-05  1.15298E-04  1.15298E-04  1.15298E-04  3.45894E-04  1.74603E-04  2.46230E-04  2.46230E-04  2.76032E-04  2.76032E-04  2.76032E-04  1.32056E-03  5.23627E-04  1.81104E-03  7.51832E-04
  -22.5000  1.47310E-04  5.46849E-05  1.16137E-04  1.16137E-04  1.16137E-04  3.48412E-04  1.77164E-04  2.48617E-04  2.48617E-04  2.79504E-04  2.79504E-04  2.79504E-04  1.33575E-03  5.33444E-04  1.83147E-03  7.65293E-04
  -22.4000  1.50159E-04  5.57886E-05  1.17025E-04  1.17025E-04  1.17025E-04  3.51076E-04  1.79744E-04  2.51040E-04  2.51040E-04  2.83071E-04  2.83071E-04  2.83071E-04  1.35129E-03  5.43376E-04  1.85253E-03  7.78909E-04
  -22.3000  1.53149E-04  5.69142E-05  1.17965E-04  1.17965E-04  1.17965E-04  3.53894E-04  1.82345E-04  2.53501E-04  2.53501E-04  2.86737E-04  2.86737E-04  2.86737E-04  1.36721E-03  5.53425E-04  1.87426E-03  7.92684E-04
  -22.2000  1.56289E-04  5.80629E-05  1.18959E-04  1.18959E-04  1.18959E-04  3.56876E-04  1.84968E-04  2.55999E-04  2.55999E-04  2.90505E-04  2.90505E-04  2.90505E-04  1.38351E-03  5.63593E-04  1.89668E-03  8.06624E-04
  -22.1000  1.59591E-04  5.92359E-05  1.20012E-04  1.20012E-04  1.20012E-04  3.60036E-04  1.87614E-04  2.58535E-04  2.58535E-04  2.94382E-04  2.94382E-04  2.94382E-04  1.40022E-03  5.73885E-04  1.91984E-03  8.20735E-04
  -22.0000  1.63070E-04  6.04344E-05  1.21128E-04  1.21128E-04  1.21128E-04  3.63385E-04  1.90285E-04  2.61111E-04  2.61111E-04  2.98377E-04  2.98377E-04  2.98377E-04  1.41735E-03  5.84302E-04  1.94381E-03  8.35022E-04
  -21.9000  1.66736E-04  6.16599E-05  1.22312E-04  1.22312E-04  1.22312E-04  3.66936E-04  1.92982E-04  2.63728E-04  2.63728E-04  3.02493E-04  3.02493E-04  3.02493E-04  1.43493E-03  5.94849E-04  1.96861E-03  8.49491E-04
  -21.8000  1.70606E-04  6.29138E-05  1.23568E-04  1.23568E-04  1.23568E-04  3.70704E-04  1.95707E-04  2.66387E-04  2.66387E-04  3.06739E-04  3.06739E-04  3.06739E-04  1.45299E-03  6.05528E-04  1.99430E-03  8.64149E-04
  -21.7000  1.74697E-04  6.41978E-05  1.24903E-04  1.24903E-04  1.24903E-04  3.74708E-04  1.98461E-04  2.69088E-04  2.69088E-04  3.11123E-04  3.11123E-04  3.11123E-04  1.47154E-03  6.16344E-04  2.02095E-03  8.79002E-04
  -21.6000  1.79026E-04  6.55137E-05  1.26321E-04  1.26321E-04  1.26321E-04  3.78963E-04  2.01246E-04  2.71832E-04  2.71832E-04  3.15653E-04  3.15653E-04  3.15653E-04  1.49062E-03  6.27300E-04  2.04861E-03  8.94059E-04
  -21.5000  1.83616E-04  6.68632E-05  1.27831E-04  1.27831E-04  1.27831E-04  3.83492E-04  2.04065E-04  2.74621E-04  2.74621E-04  3.20340E-04  3.20340E-04  3.20340E-04  1.51026E-03  6.38400E-04  2.07737E-03  9.09328E-04
  -21.4000  1.88488E-04  6.82486E-05  1.29439E-04  1.29439E-04  1.29439E-04  3.88317E-04  2.06919E-04  2.77454E-04  2.77454E-04  3.25194E-04  3.25194E-04  3.25194E-04  1.53049E-03  6.49649E-04  2.10730E-03  9.24816E-04
  -21.3000  1.93667E-04  6.96720E-05  1.31153E-04  1.31153E-04  1.31153E-04  3.93460E-04  2.09811E-04  2.80334E-04  2.80334E-04  3.30225E-04  3.30225E-04  3.30225E-04  1.55134E-03  6.61051E-04  2.13847E-03  9.40533E-04
  -21.2000  1.99182E-04  7.11360E-05  1.32983E-04  1.32983E-04  1.32983E-04  3.98948E-04  2.12743E-04  2.83261E-04  2.83261E-04  3.35446E-04  3.35446E-04  3.35446E-04  1.57286E-03  6.72611E-04  2.17099E-03  9.56490E-04
  -21.1000  2.05062E-04  7.26431E-05  1.34938E-04  1.34938E-04  1.34938E-04  4.04813E-04  2.15718E-04  2.86237E-04  2.86237E-04  3.40872E-04  3.40872E-04  3.40872E-04  1.59509E-03  6.84335E-04  2.20497E-03  9.72696E-04
