    Energy      s          Int(s)         px           py           pz           p          Int(p)       dx2-y2        dz2          dyz          dxz          dxy           d          Int(d)       total      Int(total) 
  -30.0000  8.90788E-05  6.54717E-07  9.74080E-05  9.74080E-05  1.00043E-04  2.94859E-04  2.16717E-06  1.48523E-04  1.45586E-04  1.53928E-04  1.53928E-04  1.48523E-04  7.50489E-04  5.51599E-06  1.13443E-03  8.33788E-06
  -29.9000  8.97367E-05  1.31427E-06  9.74313E-05  9.74313E-05  1.00119E-04  2.94981E-04  4.33525E-06  1.49602E-04  1.46609E-04  1.55108E-04  1.55108E-04  1.49602E-04  7.56028E-04  1.10727E-05  1.14075E-03  1.67222E-05
  -29.8000  9.04087E-05  1.97876E-06  9.74613E-05  9.74613E-05  1.00203E-04  2.95125E-04  6.50438E-06  1.50693E-04  1.47644E-04  1.56303E-04  1.56303E-04  1.50693E-04  7.61636E-04  1.66706E-05  1.14717E-03  2.51538E-05
  -29.7000  9.10955E-05  2.64830E-06  9.74981E-05  9.74981E-05  1.00295E-04  2.95291E-04  8.67473E-06  1.51797E-04  1.48691E-04  1.57514E-04  1.57514E-04  1.51797E-04  7.67314E-04  2.23103E-05  1.15370E-03  3.36333E-05
  -29.6000  9.17973E-05  3.32300E-06  9.75417E-05  9.75417E-05  1.00396E-04  2.95479E-04  1.08465E-05  1.52915E-04  1.49749E-04  1.58742E-04  1.58742E-04  1.52915E-04  7.73063E-04  2.79922E-05  1.16034E-03  4.21616E-05
  -29.5000  9.25147E-05  4.00297E-06  9.75925E-05  9.75925E-05  1.00505E-04  2.95690E-04  1.30197E-05  1.54047E-04  1.50820E-04  1.59986E-04  1.59986E-04  1.54047E-04  7.78885E-04  3.37169E-05  1.16709E-03  5.07396E-05
  -29.4000  9.32484E-05  4.68833E-06  9.76504E-05  9.76504E-05  1.00624E-04  2.95924E-04  1.51947E-05  1.55192E-04  1.51903E-04  1.61248E-04  1.61248E-04  1.55192E-04  7.84782E-04  3.94849E-05  1.17395E-03  5.93680E-05
  -29.3000  9.39988E-05  5.37921E-06  9.77156E-05  9.77156E-05  1.00751E-04  2.96182E-04  1.73716E-05  1.56352E-04  1.52998E-04  1.62526E-04  1.62526E-04  1.56352E-04  7.90754E-04  4.52969E-05  1.18094E-03  6.80477E-05
  -29.2000  9.47665E-05  6.07573E-06  9.77884E-05  9.77884E-05  1.00888E-04  2.96465E-04  1.95506E-05  1.57526E-04  1.54106E-04  1.63823E-04  1.63823E-04  1.57526E-04  7.96803E-04  5.11532E-05  1.18803E-03  7.67796E-05
  -29.1000  9.55522E-05  6.77803E-06  9.78688E-05  9.78688E-05  1.01034E-04  2.96772E-04  2.17319E-05  1.58715E-04  1.55228E-04  1.65137E-04  1.65137E-04  1.58715E-04  8.02931E-04  5.70547E-05  1.19526E-03  8.55646E-05
  -29.0000  9.63562E-05  7.48623E-06  9.79569E-05  9.79569E-05  1.01191E-04  2.97104E-04  2.39155E-05  1.59919E-04  1.56362E-04  1.66470E-04  1.66470E-04  1.59919E-04  8.09139E-04  6.30017E-05  1.20260E-03  9.44035E-05
  -28.9000  9.71799E-05  8.20049E-06  9.80533E-05  9.80533E-05  1.01357E-04  2.97464E-04  2.61018E-05  1.61138E-04  1.57509E-04  1.67822E-04  1.67822E-04  1.61138E-04  8.15429E-04  6.89950E-05  1.21007E-03  1.03297E-04
  -28.8000  9.80235E-05  8.92095E-06  9.81578E-05  9.81578E-05  1.01534E-04  2.97849E-04  2.82910E-05  1.62373E-04  1.58670E-04  1.69194E-04  1.69194E-04  1.62373E-04  8.21802E-04  7.50352E-05  1.21768E-03  1.12247E-04
  -28.7000  9.88876E-05  9.64776E-06  9.82706E-05  9.82706E-05  1.01721E-04  2.98262E-04  3.04832E-05  1.63623E-04  1.59845E-04  1.70585E-04  1.70585E-04  1.63623E-04  8.28261E-04  8.11228E-05  1.22541E-03  1.21254E-04
  -28.6000  9.97730E-05  1.03811E-05  9.83919E-05  9.83919E-05  1.01919E-04  2.98703E-04  3.26786E-05  1.64890E-04  1.61033E-04  1.71997E-04  1.71997E-04  1.64890E-04  8.34807E-04  8.72585E-05  1.23328E-03  1.30318E-04
  -28.5000  1.00681E-04  1.11211E-05  9.85220E-05  9.85220E-05  1.02128E-04  2.99173E-04  3.48775E-05  1.66173E-04  1.62236E-04  1.73429E-04  1.73429E-04  1.66173E-04  8.41440E-04  9.34430E-05  1.24129E-03  1.39442E-04
  -28.4000  1.01611E-04  1.18679E-05  9.86611E-05  9.86611E-05  1.02349E-04  2.99672E-04  3.70800E-05  1.67473E-04  1.63454E-04  1.74882E-04  1.74882E-04  1.67473E-04  8.48164E-04  9.96769E-05  1.24945E-03  1.48625E-04
  -28.3000  1.02565E-04  1.26217E-05  9.88094E-05  9.88094E-05  1.02582E-04  3.00201E-04  3.92865E-05  1.68790E-04  1.64685E-04  1.76357E-04  1.76357E-04  1.68790E-04  8.54980E-04  1.05961E-04  1.25775E-03  1.57869E-04
  -28.2000  1.03544E-04  1.33828E-05  9.89670E-05  9.89670E-05  1.02827E-04  3.00761E-04  4.14970E-05  1.70125E-04  1.65932E-04  1.77854E-04  1.77854E-04  1.70125E-04  8.61890E-04  1.12296E-04  1.26620E-03  1.67175E-04
  -28.1000  1.04549E-04  1.41512E-05  9.91344E-05  9.91344E-05  1.03084E-04  3.01353E-04  4.37119E-05  1.71477E-04  1.67194E-04  1.79374E-04  1.79374E-04  1.71477E-04  8.68897E-04  1.18682E-04  1.27480E-03  1.76545E-04
  -28.0000  1.05580E-04  1.49272E-05  9.93117E-05  9.93117E-05  1.03354E-04  3.01978E-04  4.59314E-05  1.72848E-04  1.68472E-04  1.80917E-04  1.80917E-04  1.72848E-04  8.76002E-04  1.25120E-04  1.28356E-03  1.85979E-04
  -27.9000  1.06639E-04  1.57110E-05  9.94992E-05  9.94992E-05  1.03638E-04  3.02636E-04  4.81558E-05  1.74237E-04  1.69765E-04  1.82485E-04  1.82485E-04  1.74237E-04  8.83208E-04  1.31612E-04  1.29248E-03  1.95479E-04
  -27.8000  1.07727E-04  1.65027E-05  9.96973E-05  9.96973E-05  1.03935E-04  3.03330E-04  5.03852E-05  1.75645E-04  1.71074E-04  1.84076E-04  1.84076E-04  1.75645E-04  8.90517E-04  1.38157E-04  1.30157E-03  2.05045E-04
  -27.7000  1.08845E-04  1.73027E-05  9.99063E-05  9.99063E-05  1.04247E-04  3.04060E-04  5.26200E-05  1.77073E-04  1.72400E-04  1.85693E-04  1.85693E-04  1.77073E-04  8.97931E-04  1.44757E-04  1.31084E-03  2.14679E-04
  -27.6000  1.09995E-04  1.81112E-05  1.00127E-04  1.00127E-04  1.04574E-04  3.04827E-04  5.48604E-05  1.78520E-04  1.73742E-04  1.87336E-04  1.87336E-04  1.78520E-04  9.05453E-04  1.51412E-04  1.32028E-03  2.24383E-04
  -27.5000  1.11178E-04  1.89283E-05  1.00359E-04  1.00359E-04  1.04916E-04  3.05633E-04  5.71068E-05  1.79987E-04  1.75100E-04  1.89005E-04  1.89005E-04  1.79987E-04  9.13085E-04  1.58123E-04  1.32990E-03  2.34158E-04
  -27.4000  1.12395E-04  1.97544E-05  1.00602E-04  1.00602E-04  1.05274E-04  3.06478E-04  5.93594E-05  1.81475E-04  1.76476E-04  1.90702E-04  1.90702E-04  1.81475E-04  9.20829E-04  1.64891E-04  1.33970E-03  2.44004E-04
  -27.3000  1.13648E-04  2.05897E-05  1.00858E-04  1.00858E-04  1.05648E-04  3.07365E-04  6.16184E-05  1.82984E-04  1.77869E-04  1.92426E-04  1.92426E-04  1.82984E-04  9.28688E-04  1.71716E-04  1.34970E-03  2.53925E-04
  -27.2000  1.14938E-04  2.14345E-05  1.01127E-04  1.01127E-04  1.06039E-04  3.08293E-04  6.38844E-05  1.84515E-04  1.79279E-04  1.94179E-04  1.94179E-04  1.84515E-04  9.36666E-04  1.78601E-04  1.35990E-03  2.63920E-04
  -27.1000  1.16267E-04  2.22890E-05  1.01409E-04  1.01409E-04  1.06448E-04  3.09266E-04  6.61574E-05  1.86067E-04  1.80708E-04  1.95961E-04  1.95961E-04  1.86067E-04  9.44765E-04  1.85545E-04  1.37030E-03  2.73991E-04
  -27.0000  1.17636E-04  2.31537E-05  1.01705E-04  1.01705E-04  1.06875E-04  3.10284E-04  6.84380E-05  1.87642E-04  1.82155E-04  1.97774E-04  1.97774E-04  1.87642E-04  9.52987E-04  1.92549E-04  1.38091E-03  2.84141E-04
  -26.9000  1.19048E-04  2.40286E-05  1.02014E-04  1.02014E-04  1.07321E-04  3.11349E-04  7.07263E-05  1.89240E-04  1.83621E-04  1.99617E-04  1.99617E-04  1.89240E-04  9.61336E-04  1.99615E-04  1.39173E-03  2.94370E-04
  -26.8000  1.20504E-04  2.49143E-05  1.02338E-04  1.02338E-04  1.07786E-04  3.12462E-04  7.30229E-05  1.90862E-04  1.85106E-04  2.01493E-04  2.01493E-04  1.90862E-04  9.69815E-04  2.06743E-04  1.40278E-03  3.04680E-04
  -26.7000  1.22007E-04  2.58111E-05  1.02677E-04  1.02677E-04  1.08272E-04  3.13626E-04  7.53280E-05  1.92507E-04  1.86610E-04  2.03402E-04  2.03402E-04  1.92507E-04  9.78428E-04  2.13934E-04  1.41406E-03  3.15073E-04
  -26.6000  1.23558E-04  2.67192E-05  1.03031E-04  1.03031E-04  1.08780E-04  3.14843E-04  7.76420E-05  1.94178E-04  1.88134E-04  2.05344E-04  2.05344E-04  1.94178E-04  9.87177E-04  2.21190E-04  1.42558E-03  3.25551E-04
  -26.5000  1.25161E-04  2.76391E-05  1.03402E-04  1.03402E-04  1.09310E-04  3.16114E-04  7.99654E-05  1.95873E-04  1.89678E-04  2.07322E-04  2.07322E-04  1.95873E-04  9.96068E-04  2.28511E-04  1.43734E-03  3.36115E-04
  -26.4000  1.26818E-04  2.85712E-05  1.03790E-04  1.03790E-04  1.09863E-04  3.17443E-04  8.22986E-05  1.97595E-04  1.91242E-04  2.09336E-04  2.09336E-04  1.97595E-04  1.00510E-03  2.35898E-04  1.44936E-03  3.46768E-04
  -26.3000  1.28531E-04  2.95159E-05  1.04195E-04  1.04195E-04  1.10440E-04  3.18831E-04  8.46420E-05  1.99343E-04  1.92827E-04  2.11387E-04  2.11387E-04  1.99343E-04  1.01429E-03  2.43353E-04  1.46165E-03  3.57511E-04
  -26.2000  1.30306E-04  3.04736E-05  1.04620E-04  1.04620E-04  1.11043E-04  3.20282E-04  8.69960E-05  2.01118E-04  1.94434E-04  2.13477E-04  2.13477E-04  2.01118E-04  1.02362E-03  2.50876E-04  1.47421E-03  3.68346E-04
  -26.1000  1.32142E-04  3.14449E-05  1.05062E-04  1.05062E-04  1.11672E-04  3.21797E-04  8.93612E-05  2.02922E-04  1.96062E-04  2.15606E-04  2.15606E-04  2.02922E-04  1.03312E-03  2.58470E-04  1.48706E-03  3.79276E-04
  -26.0000  1.34043E-04  3.24301E-05  1.05525E-04  1.05525E-04  1.12329E-04  3.23379E-04  9.17380E-05  2.04753E-04  1.97711E-04  2.17776E-04  2.17776E-04  2.04753E-04  1.04277E-03  2.66134E-04  1.50019E-03  3.90302E-04
  -25.9000  1.36014E-04  3.34297E-05  1.06008E-04  1.06008E-04  1.13015E-04  3.25031E-04  9.41269E-05  2.06614E-04  1.99384E-04  2.19988E-04  2.19988E-04  2.06614E-04  1.05259E-03  2.73870E-04  1.51363E-03  4.01427E-04
  -25.8000  1.38058E-04  3.44444E-05  1.06513E-04  1.06513E-04  1.13731E-04  3.26757E-04  9.65285E-05  2.08505E-04  2.01079E-04  2.22244E-04  2.22244E-04  2.08505E-04  1.06258E-03  2.81680E-04  1.52739E-03  4.12653E-04
  -25.7000  1.40179E-04  3.54747E-05  1.07040E-04  1.07040E-04  1.14479E-04  3.28560E-04  9.89434E-05  2.10428E-04  2.02798E-04  2.24545E-04  2.24545E-04  2.10428E-04  1.07274E-03  2.89565E-04  1.54148E-03  4.23983E-04
  -25.6000  1.42382E-04  3.65212E-05  1.07591E-04  1.07591E-04  1.15260E-04  3.30442E-04  1.01372E-04  2.12382E-04  2.04541E-04  2.26894E-04  2.26894E-04  2.12382E-04  1.08309E-03  2.97525E-04  1.55592E-03  4.35418E-04
  -25.5000  1.44670E-04  3.75845E-05  1.08166E-04  1.08166E-04  1.16076E-04  3.32409E-04  1.03815E-04  2.14368E-04  2.06307E-04  2.29290E-04  2.29290E-04  2.14368E-04  1.09362E-03  3.05563E-04  1.57070E-03  4.46963E-04
  -25.4000  1.47050E-04  3.86653E-05  1.08768E-04  1.08768E-04  1.16929E-04  3.34464E-04  1.06274E-04  2.16389E-04  2.08099E-04  2.31737E-04  2.31737E-04  2.16389E-04  1.10435E-03  3.13680E-04  1.58587E-03  4.58619E-04
  -25.3000  1.49526E-04  3.97643E-05  1.09396E-04  1.09396E-04  1.17821E-04  3.36613E-04  1.08748E-04  2.18444E-04  2.09916E-04  2.34236E-04  2.34236E-04  2.18444E-04  1.11528E-03  3.21877E-04  1.60142E-03  4.70389E-04
  -25.2000  1.52105E-04  4.08823E-05  1.10052E-04  1.10052E-04  1.18754E-04  3.38858E-04  1.11238E-04  2.20535E-04  2.11759E-04  2.36790E-04  2.36790E-04  2.20535E-04  1.12641E-03  3.30156E-04  1.61737E-03  4.82276E-04
  -25.1000  1.54793E-04  4.20200E-05  1.10739E-04  1.10739E-04  1.19729E-04  3.41207E-04  1.13746E-04  2.22662E-04  2.13628E-04  2.39400E-04  2.39400E-04  2.22662E-04  1.13775E-03  3.38518E-04  1.63375E-03  4.94284E-04
  -25.0000  1.57598E-04  4.31783E-05  1.11457E-04  1.11457E-04  1.20751E-04  3.43666E-04  1.16272E-04  2.24828E-04  2.15524E-04  2.42069E-04  2.42069E-04  2.24828E-04  1.14932E-03  3.46966E-04  1.65058E-03  5.06416E-04
  -24.9000  1.60525E-04  4.43581E-05  1.12209E-04  1.12209E-04  1.21821E-04  3.46238E-04  1.18817E-04  2.27033E-04  2.17448E-04  2.44799E-04  2.44799E-04  2.27033E-04  1.16111E-03  3.55500E-04  1.66787E-03  5.18674E-04
  -24.8000  1.63583E-04  4.55605E-05  1.12995E-04  1.12995E-04  1.22941E-04  3.48931E-04  1.21381E-04  2.29278E-04  2.19400E-04  2.47592E-04  2.47592E-04  2.29278E-04  1.17314E-03  3.64122E-04  1.68565E-03  5.31064E-04
  -24.7000  1.66780E-04  4.67863E-05  1.13817E-04  1.13817E-04  1.24114E-04  3.51749E-04  1.23967E-04  2.31564E-04  2.21380E-04  2.50451E-04  2.50451E-04  2.31564E-04  1.18541E-03  3.72835E-04  1.70394E-03  5.43588E-04
  -24.6000  1.70125E-04  4.80367E-05  1.14679E-04  1.14679E-04  1.25345E-04  3.54702E-04  1.26574E-04  2.33893E-04  2.23389E-04  2.53379E-04  2.53379E-04  2.33893E-04  1.19793E-03  3.81639E-04  1.72276E-03  5.56250E-04
  -24.5000  1.73630E-04  4.93128E-05  1.15581E-04  1.15581E-04  1.26636E-04  3.57798E-04  1.29203E-04  2.36268E-04  2.25428E-04  2.56379E-04  2.56379E-04  2.36268E-04  1.21072E-03  3.90538E-04  1.74215E-03  5.69054E-04
  -24.4000  1.77306E-04  5.06160E-05  1.16526E-04  1.16526E-04  1.27991E-04  3.61044E-04  1.31857E-04  2.38688E-04  2.27499E-04  2.59456E-04  2.59456E-04  2.38688E-04  1.22379E-03  3.99533E-04  1.76214E-03  5.82006E-04
  -24.3000  1.81162E-04  5.19475E-05  1.17517E-04  1.17517E-04  1.29414E-04  3.64449E-04  1.34536E-04  2.41156E-04  2.29600E-04  2.62610E-04  2.62610E-04  2.41156E-04  1.23713E-03  4.08625E-04  1.78274E-03  5.95109E-04
  -24.2000  1.85214E-04  5.33088E-05  1.18557E-04  1.18557E-04  1.30909E-04  3.68023E-04  1.37241E-04  2.43673E-04  2.31734E-04  2.65847E-04  2.65847E-04  2.43673E-04  1.25077E-03  4.17818E-04  1.80401E-03  6.08368E-04
  -24.1000  1.89476E-04  5.47014E-05  1.19648E-04  1.19648E-04  1.32482E-04  3.71777E-04  1.39973E-04  2.46242E-04  2.33900E-04  2.69171E-04  2.69171E-04  2.46242E-04  1.26473E-03  4.27114E-04  1.82598E-03  6.21788E-04
  -24.0000  1.93963E-04  5.61270E-05  1.20793E-04  1.20793E-04  1.34137E-04  3.75723E-04  1.42735E-04  2.48864E-04  2.36100E-04  2.72585E-04  2.72585E-04  2.48864E-04  1.27900E-03  4.36514E-04  1.84869E-03  6.35376E-04
  -23.9000  1.98694E-04  5.75874E-05  1.21997E-04  1.21997E-04  1.35880E-04  3.79874E-04  1.45527E-04  2.51542E-04  2.38335E-04  2.76095E-04  2.76095E-04  2.51542E-04  1.29361E-03  4.46022E-04  1.87218E-03  6.49136E-04
  -23.8000  2.03691E-04  5.90845E-05  1.23264E-04  1.23264E-04  1.37718E-04  3.84247E-04  1.48351E-04  2.54278E-04  2.40605E-04  2.79707E-04  2.79707E-04  2.54278E-04  1.30858E-03  4.55640E-04  1.89651E-03  6.63075E-04
  -23.7000  2.08970E-04  6.06204E-05  1.24597E-04  1.24597E-04  1.39657E-04  3.88852E-04  1.51209E-04  2.57074E-04  2.42911E-04  2.83425E-04  2.83425E-04  2.57074E-04  1.32391E-03  4.65371E-04  1.92173E-03  6.77200E-04
  -23.6000  2.14556E-04  6.21974E-05  1.26001E-04  1.26001E-04  1.41705E-04  3.93706E-04  1.54102E-04  2.59933E-04  2.45255E-04  2.87254E-04  2.87254E-04  2.59933E-04  1.33963E-03  4.75217E-04  1.94789E-03  6.91517E-04
  -23.5000  2.20474E-04  6.38178E-05  1.27479E-04  1.27479E-04  1.43868E-04  3.98827E-04  1.57034E-04  2.62857E-04  2.47637E-04  2.91201E-04  2.91201E-04  2.62857E-04  1.35575E-03  4.85181E-04  1.97506E-03  7.06033E-04
  -23.4000  2.26752E-04  6.54844E-05  1.29039E-04  1.29039E-04  1.46156E-04  4.04233E-04  1.60005E-04  2.65849E-04  2.50056E-04  2.95272E-04  2.95272E-04  2.65849E-04  1.37230E-03  4.95268E-04  2.00328E-03  7.20757E-04
  -23.3000  2.33424E-04  6.72000E-05  1.30685E-04  1.30685E-04  1.48579E-04  4.09949E-04  1.63018E-04  2.68913E-04  2.52517E-04  2.99475E-04  2.99475E-04  2.68913E-04  1.38929E-03  5.05479E-04  2.03267E-03  7.35697E-04
  -23.2000  2.40524E-04  6.89679E-05  1.32424E-04  1.32424E-04  1.51147E-04  4.15996E-04  1.66075E-04  2.72053E-04  2.55020E-04  3.03820E-04  3.03820E-04  2.72053E-04  1.40676E-03  5.15818E-04  2.06328E-03  7.50862E-04
  -23.1000  2.48092E-04  7.07913E-05  1.34264E-04  1.34264E-04  1.53872E-04  4.22400E-04  1.69180E-04  2.75271E-04  2.57565E-04  3.08312E-04  3.08312E-04  2.75271E-04  1.42473E-03  5.26290E-04  2.09522E-03  7.66261E-04
  -23.0000  2.56172E-04  7.26741E-05  1.36211E-04  1.36211E-04  1.56767E-04  4.29189E-04  1.72334E-04  2.78572E-04  2.60154E-04  3.12963E-04  3.12963E-04  2.78572E-04  1.44323E-03  5.36897E-04  2.12859E-03  7.81906E-04
  -22.9000  2.64814E-04  7.46205E-05  1.38274E-04  1.38274E-04  1.59847E-04  4.36395E-04  1.75542E-04  2.81961E-04  2.62788E-04  3.17784E-04  3.17784E-04  2.81961E-04  1.46228E-03  5.47645E-04  2.16349E-03  7.97807E-04
  -22.8000  2.74075E-04  7.66349E-05  1.40464E-04  1.40464E-04  1.63128E-04  4.44055E-04  1.78806E-04  2.85443E-04  2.65470E-04  3.22785E-04  3.22785E-04  2.85443E-04  1.48193E-03  5.58537E-04  2.20006E-03  8.13977E-04
  -22.7000  2.84022E-04  7.87224E-05  1.42791E-04  1.42791E-04  1.66628E-04  4.52210E-04  1.82129E-04  2.89022E-04  2.68200E-04  3.27981E-04  3.27981E-04  2.89022E-04  1.50221E-03  5.69578E-04  2.23844E-03  8.30430E-04
  -22.6000  2.94722E-04  8.08886E-05  1.45265E-04  1.45265E-04  1.70368E-04  4.60898E-04  1.85517E-04  2.92705E-04  2.70981E-04  3.33384E-04  3.33384E-04  2.92705E-04  1.52316E-03  5.80773E-04  2.27878E-03  8.47178E-04
  -22.5000  3.06258E-04  8.31395E-05  1.47901E-04  1.47901E-04  1.74367E-04  4.70169E-04  1.88973E-04  2.96498E-04  2.73814E-04  3.39010E-04  3.39010E-04  2.96498E-04  1.54483E-03  5.92127E-04  2.32126E-03  8.64239E-04
  -22.4000  3.18722E-04  8.54821E-05  1.50712E-04  1.50712E-04  1.78653E-04  4.80077E-04  1.92501E-04  3.00407E-04  2.76701E-04  3.44876E-04  3.44876E-04  3.00407E-04  1.56727E-03  6.03646E-04  2.36607E-03  8.81630E-04
  -22.3000  3.32221E-04  8.79239E-05  1.53714E-04  1.53714E-04  1.83253E-04  4.90680E-04  1.96107E-04  3.04441E-04  2.79645E-04  3.51001E-04  3.51001E-04  3.04441E-04  1.59053E-03  6.15337E-04  2.41343E-03  8.99368E-04
  -22.2000  3.46874E-04  9.04734E-05  1.56924E-04  1.56924E-04  1.88198E-04  5.02046E-04  1.99797E-04  3.08607E-04  2.82647E-04  3.57403E-04  3.57403E-04  3.08607E-04  1.61467E-03  6.27204E-04  2.46359E-03  9.17475E-04
  -22.1000  3.62824E-04  9.31401E-05  1.60363E-04  1.60363E-04  1.93524E-04  5.14251E-04  2.03577E-04  3.12914E-04  2.85709E-04  3.64109E-04  3.64109E-04  3.12914E-04  1.63976E-03  6.39256E-04  2.51683E-03  9.35973E-04
  -22.0000  3.80234E-04  9.59347E-05  1.64054E-04  1.64054E-04  1.99271E-04  5.27380E-04  2.07453E-04  3.17375E-04  2.88837E-04  3.71144E-04  3.71144E-04  3.17375E-04  1.66588E-03  6.51500E-04  2.57349E-03  9.54888E-04
  -21.9000  3.99292E-04  9.88695E-05  1.68022E-04  1.68022E-04  2.05487E-04  5.41531E-04  2.11433E-04  3.22000E-04  2.92033E-04  3.78538E-04  3.78538E-04  3.22000E-04  1.69311E-03  6.63944E-04  2.63393E-03  9.74247E-04
  -21.8000  4.20220E-04  1.01958E-04  1.72296E-04  1.72296E-04  2.12222E-04  5.56814E-04  2.15526E-04  3.26802E-04  2.95301E-04  3.86323E-04  3.86323E-04  3.26802E-04  1.72155E-03  6.76597E-04  2.69859E-03  9.94081E-04
  -21.7000  4.43279E-04  1.05216E-04  1.76908E-04  1.76908E-04  2.19540E-04  5.73356E-04  2.19740E-04  3.31797E-04  2.98644E-04  3.94538E-04  3.94538E-04  3.31797E-04  1.75131E-03  6.89469E-04  2.76795E-03  1.01443E-03
  -21.6000  4.68786E-04  1.08662E-04  1.81898E-04  1.81898E-04  2.27512E-04  5.91308E-04  2.24086E-04  3.37001E-04  3.02069E-04  4.03226E-04  4.03226E-04  3.37001E-04  1.78252E-03  7.02571E-04  2.84262E-03  1.03532E-03
  -21.5000  4.97095E-04  1.12315E-04  1.87307E-04  1.87307E-04  2.36216E-04  6.10830E-04  2.28576E-04  3.42433E-04  3.05580E-04  4.12434E-04  4.12434E-04  3.42433E-04  1.81532E-03  7.15913E-04  2.92324E-03  1.05680E-03
  -21.4000  5.28644E-04  1.16201E-04  1.93184E-04  1.93184E-04  2.45745E-04  6.32113E-04  2.33222E-04  3.48114E-04  3.09184E-04  4.22217E-04  4.22217E-04  3.48114E-04  1.84985E-03  7.29509E-04  3.01060E-03  1.07893E-03
  -21.3000  5.63956E-04  1.20346E-04  1.99585E-04  1.99585E-04  2.56209E-04  6.55378E-04  2.38039E-04  3.54069E-04  3.12889E-04  4.32638E-04  4.32638E-04  3.54069E-04  1.88630E-03  7.43373E-04  3.10564E-03  1.10176E-03
  -21.2000  6.03668E-04  1.24783E-04  2.06576E-04  2.06576E-04  2.67735E-04  6.80886E-04  2.43043E-04  3.60324E-04  3.16702E-04  4.43769E-04  4.43769E-04  3.60324E-04  1.92489E-03  7.57521E-04  3.20944E-03  1.12535E-03
  -21.1000  6.48556E-04  1.29549E-04  2.14233E-04  2.14233E-04  2.80475E-04  7.08940E-04  2.48254E-04  3.66913E-04  3.20636E-04  4.55693E-04  4.55693E-04  3.66913E-04  1.96585E-03  7.71970E-04  3.32335E-03  1.14977E-03
