    Energy      s          Int(s)         px           py           pz           p          Int(p)       dx2-y2        dz2          dyz          dxz          dxy           d          Int(d)       total      Int(total) 
  -30.0000  8.66357E-05  6.36760E-07  6.86465E-05  6.86465E-05  6.86465E-05  2.05940E-04  1.51363E-06  3.51947E-04  3.51947E-04  3.57377E-04  3.57377E-04  3.57377E-04  1.77602E-03  1.30535E-05  2.06860E-03  1.52039E-05
  -29.9000  8.71850E-05  1.27756E-06  6.88180E-05  6.88180E-05  6.88180E-05  2.06454E-04  3.03104E-06  3.56043E-04  3.56043E-04  3.61585E-04  3.61585E-04  3.61585E-04  1.79684E-03  2.62601E-05  2.09048E-03  3.05687E-05
  -29.8000  8.77425E-05  1.92245E-06  6.89928E-05  6.89928E-05  6.89928E-05  2.06978E-04  4.55230E-06  3.60215E-04  3.60215E-04  3.65872E-04  3.65872E-04  3.65872E-04  1.81805E-03  3.96225E-05  2.11277E-03  4.60972E-05
  -29.7000  8.83082E-05  2.57151E-06  6.91708E-05  6.91708E-05  6.91708E-05  2.07512E-04  6.07749E-06  3.64463E-04  3.64463E-04  3.70239E-04  3.70239E-04  3.70239E-04  1.83965E-03  5.31436E-05  2.13547E-03  6.17926E-05
  -29.6000  8.88821E-05  3.22478E-06  6.93522E-05  6.93522E-05  6.93522E-05  2.08056E-04  7.60667E-06  3.68791E-04  3.68791E-04  3.74688E-04  3.74688E-04  3.74688E-04  1.86165E-03  6.68265E-05  2.15858E-03  7.76579E-05
  -29.5000  8.94643E-05  3.88233E-06  6.95369E-05  6.95369E-05  6.95369E-05  2.08611E-04  9.13993E-06  3.73198E-04  3.73198E-04  3.79221E-04  3.79221E-04  3.79221E-04  1.88406E-03  8.06741E-05  2.18213E-03  9.36963E-05
  -29.4000  9.00552E-05  4.54422E-06  6.97250E-05  6.97250E-05  6.97250E-05  2.09175E-04  1.06773E-05  3.77687E-04  3.77687E-04  3.83840E-04  3.83840E-04  3.83840E-04  1.90690E-03  9.46895E-05  2.20613E-03  1.09911E-04
  -29.3000  9.06548E-05  5.21052E-06  6.99167E-05  6.99167E-05  6.99167E-05  2.09750E-04  1.22190E-05  3.82262E-04  3.82262E-04  3.88547E-04  3.88547E-04  3.88547E-04  1.93017E-03  1.08876E-04  2.23057E-03  1.26305E-04
  -29.2000  9.12635E-05  5.88130E-06  7.01119E-05  7.01119E-05  7.01119E-05  2.10336E-04  1.37649E-05  3.86922E-04  3.86922E-04  3.93345E-04  3.93345E-04  3.93345E-04  1.95388E-03  1.23237E-04  2.25548E-03  1.42883E-04
  -29.1000  9.18813E-05  6.55661E-06  7.03107E-05  7.03107E-05  7.03107E-05  2.10932E-04  1.53152E-05  3.91672E-04  3.91672E-04  3.98236E-04  3.98236E-04  3.98236E-04  1.97805E-03  1.37775E-04  2.28086E-03  1.59647E-04
  -29.0000  9.25084E-05  7.23654E-06  7.05131E-05  7.05131E-05  7.05131E-05  2.11539E-04  1.68700E-05  3.96512E-04  3.96512E-04  4.03222E-04  4.03222E-04  4.03222E-04  2.00269E-03  1.52495E-04  2.30674E-03  1.76601E-04
  -28.9000  9.31451E-05  7.92114E-06  7.07193E-05  7.07193E-05  7.07193E-05  2.12158E-04  1.84294E-05  4.01446E-04  4.01446E-04  4.08305E-04  4.08305E-04  4.08305E-04  2.02781E-03  1.67399E-04  2.33311E-03  1.93749E-04
  -28.8000  9.37917E-05  8.61050E-06  7.09294E-05  7.09294E-05  7.09294E-05  2.12788E-04  1.99933E-05  4.06475E-04  4.06475E-04  4.13490E-04  4.13490E-04  4.13490E-04  2.05342E-03  1.82491E-04  2.36000E-03  2.11095E-04
  -28.7000  9.44483E-05  9.30468E-06  7.11433E-05  7.11433E-05  7.11433E-05  2.13430E-04  2.15620E-05  4.11603E-04  4.11603E-04  4.18777E-04  4.18777E-04  4.18777E-04  2.07954E-03  1.97775E-04  2.38742E-03  2.28642E-04
  -28.6000  9.51154E-05  1.00038E-05  7.13613E-05  7.13613E-05  7.13613E-05  2.14084E-04  2.31355E-05  4.16833E-04  4.16833E-04  4.24171E-04  4.24171E-04  4.24171E-04  2.10618E-03  2.13255E-04  2.41538E-03  2.46395E-04
  -28.5000  9.57929E-05  1.07078E-05  7.15833E-05  7.15833E-05  7.15833E-05  2.14750E-04  2.47139E-05  4.22166E-04  4.22166E-04  4.29674E-04  4.29674E-04  4.29674E-04  2.13335E-03  2.28935E-04  2.44390E-03  2.64357E-04
  -28.4000  9.64814E-05  1.14170E-05  7.18095E-05  7.18095E-05  7.18095E-05  2.15428E-04  2.62972E-05  4.27606E-04  4.27606E-04  4.35288E-04  4.35288E-04  4.35288E-04  2.16108E-03  2.44819E-04  2.47299E-03  2.82533E-04
  -28.3000  9.71799E-05  1.21312E-05  7.20395E-05  7.20395E-05  7.20395E-05  2.16119E-04  2.78857E-05  4.33152E-04  4.33152E-04  4.41015E-04  4.41015E-04  4.41015E-04  2.18935E-03  2.60910E-04  2.50265E-03  3.00927E-04
  -28.2000  9.78903E-05  1.28507E-05  7.22741E-05  7.22741E-05  7.22741E-05  2.16822E-04  2.94793E-05  4.38812E-04  4.38812E-04  4.46861E-04  4.46861E-04  4.46861E-04  2.21821E-03  2.77214E-04  2.53292E-03  3.19544E-04
  -28.1000  9.86125E-05  1.35755E-05  7.25131E-05  7.25131E-05  7.25131E-05  2.17539E-04  3.10782E-05  4.44587E-04  4.44587E-04  4.52829E-04  4.52829E-04  4.52829E-04  2.24766E-03  2.93734E-04  2.56381E-03  3.38388E-04
  -28.0000  9.93467E-05  1.43057E-05  7.27566E-05  7.27566E-05  7.27566E-05  2.18270E-04  3.26824E-05  4.50481E-04  4.50481E-04  4.58922E-04  4.58922E-04  4.58922E-04  2.27773E-03  3.10475E-04  2.59534E-03  3.57463E-04
  -27.9000  1.00093E-04  1.50413E-05  7.30048E-05  7.30048E-05  7.30048E-05  2.19014E-04  3.42922E-05  4.56497E-04  4.56497E-04  4.65143E-04  4.65143E-04  4.65143E-04  2.30842E-03  3.27441E-04  2.62753E-03  3.76775E-04
  -27.8000  1.00853E-04  1.57826E-05  7.32578E-05  7.32578E-05  7.32578E-05  2.19773E-04  3.59075E-05  4.62638E-04  4.62638E-04  4.71497E-04  4.71497E-04  4.71497E-04  2.33977E-03  3.44638E-04  2.66039E-03  3.96328E-04
  -27.7000  1.01625E-04  1.65295E-05  7.35156E-05  7.35156E-05  7.35156E-05  2.20547E-04  3.75285E-05  4.68908E-04  4.68908E-04  4.77986E-04  4.77986E-04  4.77986E-04  2.37178E-03  3.62071E-04  2.69395E-03  4.16129E-04
  -27.6000  1.02410E-04  1.72822E-05  7.37784E-05  7.37784E-05  7.37784E-05  2.21335E-04  3.91552E-05  4.75311E-04  4.75311E-04  4.84616E-04  4.84616E-04  4.84616E-04  2.40447E-03  3.79743E-04  2.72821E-03  4.36181E-04
  -27.5000  1.03209E-04  1.80408E-05  7.40462E-05  7.40462E-05  7.40462E-05  2.22138E-04  4.07879E-05  4.81849E-04  4.81849E-04  4.91389E-04  4.91389E-04  4.91389E-04  2.43786E-03  3.97661E-04  2.76321E-03  4.56490E-04
  -27.4000  1.04022E-04  1.88053E-05  7.43191E-05  7.43191E-05  7.43191E-05  2.22957E-04  4.24266E-05  4.88527E-04  4.88527E-04  4.98310E-04  4.98310E-04  4.98310E-04  2.47199E-03  4.15830E-04  2.79896E-03  4.77062E-04
  -27.3000  1.04850E-04  1.95760E-05  7.45974E-05  7.45974E-05  7.45974E-05  2.23792E-04  4.40715E-05  4.95350E-04  4.95350E-04  5.05384E-04  5.05384E-04  5.05384E-04  2.50685E-03  4.34255E-04  2.83549E-03  4.97902E-04
  -27.2000  1.05692E-04  2.03528E-05  7.48811E-05  7.48811E-05  7.48811E-05  2.24643E-04  4.57226E-05  5.02321E-04  5.02321E-04  5.12615E-04  5.12615E-04  5.12615E-04  2.54249E-03  4.52942E-04  2.87282E-03  5.19017E-04
  -27.1000  1.06550E-04  2.11359E-05  7.51704E-05  7.51704E-05  7.51704E-05  2.25511E-04  4.73800E-05  5.09445E-04  5.09445E-04  5.20009E-04  5.20009E-04  5.20009E-04  2.57892E-03  4.71897E-04  2.91098E-03  5.40413E-04
  -27.0000  1.07423E-04  2.19255E-05  7.54654E-05  7.54654E-05  7.54654E-05  2.26396E-04  4.90440E-05  5.16726E-04  5.16726E-04  5.27569E-04  5.27569E-04  5.27569E-04  2.61616E-03  4.91125E-04  2.94998E-03  5.62094E-04
  -26.9000  1.08313E-04  2.27216E-05  7.57663E-05  7.57663E-05  7.57663E-05  2.27299E-04  5.07146E-05  5.24169E-04  5.24169E-04  5.35301E-04  5.35301E-04  5.35301E-04  2.65424E-03  5.10633E-04  2.98985E-03  5.84069E-04
  -26.8000  1.09218E-04  2.35243E-05  7.60729E-05  7.60729E-05  7.60729E-05  2.28219E-04  5.23920E-05  5.31776E-04  5.31776E-04  5.43208E-04  5.43208E-04  5.43208E-04  2.69318E-03  5.30428E-04  3.03061E-03  6.06344E-04
  -26.7000  1.10140E-04  2.43338E-05  7.63856E-05  7.63856E-05  7.63856E-05  2.29157E-04  5.40763E-05  5.39555E-04  5.39555E-04  5.51298E-04  5.51298E-04  5.51298E-04  2.73300E-03  5.50515E-04  3.07230E-03  6.28925E-04
  -26.6000  1.11080E-04  2.51502E-05  7.67048E-05  7.67048E-05  7.67048E-05  2.30114E-04  5.57676E-05  5.47512E-04  5.47512E-04  5.59577E-04  5.59577E-04  5.59577E-04  2.77375E-03  5.70902E-04  3.11495E-03  6.51820E-04
  -26.5000  1.12039E-04  2.59737E-05  7.70305E-05  7.70305E-05  7.70305E-05  2.31092E-04  5.74661E-05  5.55651E-04  5.55651E-04  5.68051E-04  5.68051E-04  5.68051E-04  2.81545E-03  5.91595E-04  3.15859E-03  6.75035E-04
  -26.4000  1.13016E-04  2.68044E-05  7.73630E-05  7.73630E-05  7.73630E-05  2.32089E-04  5.91719E-05  5.63979E-04  5.63979E-04  5.76726E-04  5.76726E-04  5.76726E-04  2.85813E-03  6.12602E-04  3.20324E-03  6.98578E-04
  -26.3000  1.14013E-04  2.76423E-05  7.77026E-05  7.77026E-05  7.77026E-05  2.33108E-04  6.08852E-05  5.72501E-04  5.72501E-04  5.85608E-04  5.85608E-04  5.85608E-04  2.90183E-03  6.33930E-04  3.24895E-03  7.22457E-04
  -26.2000  1.15030E-04  2.84878E-05  7.80492E-05  7.80492E-05  7.80492E-05  2.34148E-04  6.26062E-05  5.81223E-04  5.81223E-04  5.94705E-04  5.94705E-04  5.94705E-04  2.94656E-03  6.55587E-04  3.29574E-03  7.46681E-04
  -26.1000  1.16067E-04  2.93409E-05  7.84031E-05  7.84031E-05  7.84031E-05  2.35209E-04  6.43349E-05  5.90150E-04  5.90150E-04  6.04022E-04  6.04022E-04  6.04022E-04  2.99237E-03  6.77580E-04  3.34364E-03  7.71256E-04
  -26.0000  1.17125E-04  3.02017E-05  7.87644E-05  7.87644E-05  7.87644E-05  2.36293E-04  6.60717E-05  5.99291E-04  5.99291E-04  6.13567E-04  6.13567E-04  6.13567E-04  3.03929E-03  6.99918E-04  3.39270E-03  7.96192E-04
  -25.9000  1.18205E-04  3.10705E-05  7.91334E-05  7.91334E-05  7.91334E-05  2.37400E-04  6.78165E-05  6.08652E-04  6.08652E-04  6.23348E-04  6.23348E-04  6.23348E-04  3.08735E-03  7.22610E-04  3.44295E-03  8.21497E-04
  -25.8000  1.19308E-04  3.19474E-05  7.95104E-05  7.95104E-05  7.95104E-05  2.38531E-04  6.95697E-05  6.18239E-04  6.18239E-04  6.33373E-04  6.33373E-04  6.33373E-04  3.13660E-03  7.45664E-04  3.49444E-03  8.47181E-04
  -25.7000  1.20434E-04  3.28326E-05  7.98955E-05  7.98955E-05  7.98955E-05  2.39686E-04  7.13314E-05  6.28061E-04  6.28061E-04  6.43650E-04  6.43650E-04  6.43650E-04  3.18707E-03  7.69088E-04  3.54719E-03  8.73252E-04
  -25.6000  1.21584E-04  3.37262E-05  8.02891E-05  8.02891E-05  8.02891E-05  2.40867E-04  7.31017E-05  6.38126E-04  6.38126E-04  6.54188E-04  6.54188E-04  6.54188E-04  3.23882E-03  7.92893E-04  3.60127E-03  8.99721E-04
  -25.5000  1.22759E-04  3.46285E-05  8.06916E-05  8.06916E-05  8.06916E-05  2.42075E-04  7.48809E-05  6.48441E-04  6.48441E-04  6.64997E-04  6.64997E-04  6.64997E-04  3.29187E-03  8.17088E-04  3.65671E-03  9.26597E-04
  -25.4000  1.23961E-04  3.55396E-05  8.11030E-05  8.11030E-05  8.11030E-05  2.43309E-04  7.66692E-05  6.59016E-04  6.59016E-04  6.76085E-04  6.76085E-04  6.76085E-04  3.34629E-03  8.41683E-04  3.71356E-03  9.53891E-04
  -25.3000  1.25187E-04  3.64597E-05  8.15231E-05  8.15231E-05  8.15231E-05  2.44569E-04  7.84668E-05  6.69852E-04  6.69852E-04  6.87457E-04  6.87457E-04  6.87457E-04  3.40207E-03  8.66687E-04  3.77183E-03  9.81614E-04
  -25.2000  1.26442E-04  3.73890E-05  8.19530E-05  8.19530E-05  8.19530E-05  2.45859E-04  8.02738E-05  6.80966E-04  6.80966E-04  6.99129E-04  6.99129E-04  6.99129E-04  3.45932E-03  8.92113E-04  3.83162E-03  1.00978E-03
  -25.1000  1.27725E-04  3.83278E-05  8.23930E-05  8.23930E-05  8.23930E-05  2.47179E-04  8.20905E-05  6.92367E-04  6.92367E-04  7.11112E-04  7.11112E-04  7.11112E-04  3.51807E-03  9.17970E-04  3.89297E-03  1.03839E-03
  -25.0000  1.29039E-04  3.92762E-05  8.28434E-05  8.28434E-05  8.28434E-05  2.48530E-04  8.39172E-05  7.04065E-04  7.04065E-04  7.23418E-04  7.23418E-04  7.23418E-04  3.57838E-03  9.44271E-04  3.95595E-03  1.06746E-03
  -24.9000  1.30384E-04  4.02345E-05  8.33046E-05  8.33046E-05  8.33046E-05  2.49914E-04  8.57540E-05  7.16069E-04  7.16069E-04  7.36057E-04  7.36057E-04  7.36057E-04  3.64031E-03  9.71027E-04  4.02061E-03  1.09702E-03
  -24.8000  1.31762E-04  4.12029E-05  8.37768E-05  8.37768E-05  8.37768E-05  2.51330E-04  8.76013E-05  7.28391E-04  7.28391E-04  7.49042E-04  7.49042E-04  7.49042E-04  3.70391E-03  9.98250E-04  4.08700E-03  1.12705E-03
  -24.7000  1.33172E-04  4.21817E-05  8.42603E-05  8.42603E-05  8.42603E-05  2.52781E-04  8.94592E-05  7.41040E-04  7.41040E-04  7.62383E-04  7.62383E-04  7.62383E-04  3.76923E-03  1.02595E-03  4.15518E-03  1.15759E-03
  -24.6000  1.34617E-04  4.31711E-05  8.47556E-05  8.47556E-05  8.47556E-05  2.54267E-04  9.13280E-05  7.54029E-04  7.54029E-04  7.76097E-04  7.76097E-04  7.76097E-04  3.83635E-03  1.05415E-03  4.22523E-03  1.18865E-03
  -24.5000  1.36098E-04  4.41714E-05  8.52632E-05  8.52632E-05  8.52632E-05  2.55790E-04  9.32080E-05  7.67371E-04  7.67371E-04  7.90196E-04  7.90196E-04  7.90196E-04  3.90533E-03  1.08285E-03  4.29722E-03  1.22023E-03
  -24.4000  1.37616E-04  4.51829E-05  8.57834E-05  8.57834E-05  8.57834E-05  2.57350E-04  9.50995E-05  7.81079E-04  7.81079E-04  8.04696E-04  8.04696E-04  8.04696E-04  3.97625E-03  1.11208E-03  4.37121E-03  1.25236E-03
  -24.3000  1.39173E-04  4.62058E-05  8.63168E-05  8.63168E-05  8.63168E-05  2.58950E-04  9.70027E-05  7.95166E-04  7.95166E-04  8.19612E-04  8.19612E-04  8.19612E-04  4.04917E-03  1.14184E-03  4.44729E-03  1.28505E-03
  -24.2000  1.40771E-04  4.72404E-05  8.68640E-05  8.68640E-05  8.68640E-05  2.60592E-04  9.89181E-05  8.09647E-04  8.09647E-04  8.34963E-04  8.34963E-04  8.34963E-04  4.12418E-03  1.17215E-03  4.52555E-03  1.31831E-03
  -24.1000  1.42411E-04  4.82871E-05  8.74256E-05  8.74256E-05  8.74256E-05  2.62277E-04  1.00846E-04  8.24538E-04  8.24538E-04  8.50764E-04  8.50764E-04  8.50764E-04  4.20137E-03  1.20303E-03  4.60606E-03  1.35216E-03
  -24.0000  1.44095E-04  4.93462E-05  8.80020E-05  8.80020E-05  8.80020E-05  2.64006E-04  1.02786E-04  8.39853E-04  8.39853E-04  8.67034E-04  8.67034E-04  8.67034E-04  4.28081E-03  1.23449E-03  4.68891E-03  1.38663E-03
  -23.9000  1.45823E-04  5.04180E-05  8.85930E-05  8.85930E-05  8.85930E-05  2.65779E-04  1.04740E-04  8.55599E-04  8.55599E-04  8.83781E-04  8.83781E-04  8.83781E-04  4.36254E-03  1.26656E-03  4.77414E-03  1.42172E-03
  -23.8000  1.47599E-04  5.15028E-05  8.92002E-05  8.92002E-05  8.92002E-05  2.67601E-04  1.06706E-04  8.71803E-04  8.71803E-04  9.01037E-04  9.01037E-04  9.01037E-04  4.44672E-03  1.29924E-03  4.86192E-03  1.45745E-03
  -23.7000  1.49426E-04  5.26011E-05  8.98246E-05  8.98246E-05  8.98246E-05  2.69474E-04  1.08687E-04  8.88485E-04  8.88485E-04  9.18823E-04  9.18823E-04  9.18823E-04  4.53344E-03  1.33256E-03  4.95234E-03  1.49385E-03
  -23.6000  1.51306E-04  5.37132E-05  9.04667E-05  9.04667E-05  9.04667E-05  2.71400E-04  1.10682E-04  9.05660E-04  9.05660E-04  9.37159E-04  9.37159E-04  9.37159E-04  4.62280E-03  1.36654E-03  5.04550E-03  1.53093E-03
  -23.5000  1.53240E-04  5.48394E-05  9.11270E-05  9.11270E-05  9.11270E-05  2.73381E-04  1.12691E-04  9.23349E-04  9.23349E-04  9.56069E-04  9.56069E-04  9.56069E-04  4.71490E-03  1.40119E-03  5.14152E-03  1.56872E-03
  -23.4000  1.55232E-04  5.59804E-05  9.18063E-05  9.18063E-05  9.18063E-05  2.75419E-04  1.14715E-04  9.41572E-04  9.41572E-04  9.75576E-04  9.75576E-04  9.75576E-04  4.80987E-03  1.43654E-03  5.24052E-03  1.60724E-03
  -23.3000  1.57284E-04  5.71364E-05  9.25056E-05  9.25056E-05  9.25056E-05  2.77517E-04  1.16755E-04  9.60350E-04  9.60350E-04  9.95707E-04  9.95707E-04  9.95707E-04  4.90782E-03  1.47262E-03  5.34262E-03  1.64651E-03
  -23.2000  1.59398E-04  5.83080E-05  9.32256E-05  9.32256E-05  9.32256E-05  2.79677E-04  1.18811E-04  9.79708E-04  9.79708E-04  1.01649E-03  1.01649E-03  1.01649E-03  5.00888E-03  1.50943E-03  5.44796E-03  1.68655E-03
  -23.1000  1.61578E-04  5.94955E-05  9.39675E-05  9.39675E-05  9.39675E-05  2.81902E-04  1.20883E-04  9.99669E-04  9.99669E-04  1.03795E-03  1.03795E-03  1.03795E-03  5.11319E-03  1.54701E-03  5.55667E-03  1.72739E-03
  -23.0000  1.63827E-04  6.06996E-05  9.47321E-05  9.47321E-05  9.47321E-05  2.84196E-04  1.22971E-04  1.02026E-03  1.02026E-03  1.06012E-03  1.06012E-03  1.06012E-03  5.22089E-03  1.58538E-03  5.66891E-03  1.76906E-03
  -22.9000  1.66149E-04  6.19208E-05  9.55206E-05  9.55206E-05  9.55206E-05  2.86562E-04  1.25078E-04  1.04150E-03  1.04150E-03  1.08304E-03  1.08304E-03  1.08304E-03  5.33212E-03  1.62457E-03  5.78483E-03  1.81157E-03
  -22.8000  1.68548E-04  6.31596E-05  9.63346E-05  9.63346E-05  9.63346E-05  2.89004E-04  1.27202E-04  1.06343E-03  1.06343E-03  1.10674E-03  1.10674E-03  1.10674E-03  5.44708E-03  1.66461E-03  5.90463E-03  1.85497E-03
  -22.7000  1.71027E-04  6.44166E-05  9.71751E-05  9.71751E-05  9.71751E-05  2.91525E-04  1.29344E-04  1.08608E-03  1.08608E-03  1.13125E-03  1.13125E-03  1.13125E-03  5.56590E-03  1.70552E-03  6.02845E-03  1.89928E-03
  -22.6000  1.73591E-04  6.56925E-05  9.80433E-05  9.80433E-05  9.80433E-05  2.94130E-04  1.31506E-04  1.10947E-03  1.10947E-03  1.15661E-03  1.15661E-03  1.15661E-03  5.68876E-03  1.74733E-03  6.15649E-03  1.94453E-03
  -22.5000  1.76238E-04  6.69878E-05  9.89389E-05  9.89389E-05  9.89389E-05  2.96817E-04  1.33688E-04  1.13361E-03  1.13361E-03  1.18284E-03  1.18284E-03  1.18284E-03  5.81575E-03  1.79008E-03  6.28881E-03  1.99075E-03
  -22.4000  1.78984E-04  6.83034E-05  9.98668E-05  9.98668E-05  9.98668E-05  2.99600E-04  1.35890E-04  1.15858E-03  1.15858E-03  1.21003E-03  1.21003E-03  1.21003E-03  5.94723E-03  1.83379E-03  6.42581E-03  2.03798E-03
  -22.3000  1.81829E-04  6.96398E-05  1.00827E-04  1.00827E-04  1.00827E-04  3.02481E-04  1.38113E-04  1.18439E-03  1.18439E-03  1.23819E-03  1.23819E-03  1.23819E-03  6.08336E-03  1.87850E-03  6.56767E-03  2.08625E-03
  -22.2000  1.84780E-04  7.09979E-05  1.01822E-04  1.01822E-04  1.01822E-04  3.05465E-04  1.40358E-04  1.21110E-03  1.21110E-03  1.26739E-03  1.26739E-03  1.26739E-03  6.22437E-03  1.92425E-03  6.71462E-03  2.13560E-03
  -22.1000  1.87841E-04  7.23785E-05  1.02852E-04  1.02852E-04  1.02852E-04  3.08557E-04  1.42626E-04  1.23874E-03  1.23874E-03  1.29767E-03  1.29767E-03  1.29767E-03  6.37049E-03  1.97107E-03  6.86689E-03  2.18607E-03
  -22.0000  1.91021E-04  7.37825E-05  1.03921E-04  1.03921E-04  1.03921E-04  3.11764E-04  1.44917E-04  1.26735E-03  1.26735E-03  1.32909E-03  1.32909E-03  1.32909E-03  6.52197E-03  2.01900E-03  7.02476E-03  2.23770E-03
  -21.9000  1.94325E-04  7.52107E-05  1.05031E-04  1.05031E-04  1.05031E-04  3.15093E-04  1.47233E-04  1.29697E-03  1.29697E-03  1.36172E-03  1.36172E-03  1.36172E-03  6.67909E-03  2.06810E-03  7.18851E-03  2.29054E-03
  -21.8000  1.97760E-04  7.66642E-05  1.06183E-04  1.06183E-04  1.06183E-04  3.18549E-04  1.49575E-04  1.32767E-03  1.32767E-03  1.39560E-03  1.39560E-03  1.39560E-03  6.84214E-03  2.11838E-03  7.35845E-03  2.34462E-03
  -21.7000  2.01336E-04  7.81440E-05  1.07381E-04  1.07381E-04  1.07381E-04  3.22142E-04  1.51942E-04  1.35949E-03  1.35949E-03  1.43081E-03  1.43081E-03  1.43081E-03  7.01141E-03  2.16992E-03  7.53489E-03  2.40000E-03
  -21.6000  2.05062E-04  7.96512E-05  1.08626E-04  1.08626E-04  1.08626E-04  3.25879E-04  1.54337E-04  1.39248E-03  1.39248E-03  1.46743E-03  1.46743E-03  1.46743E-03  7.18725E-03  2.22274E-03  7.71819E-03  2.45673E-03
  -21.5000  2.08948E-04  8.11870E-05  1.09924E-04  1.09924E-04  1.09924E-04  3.29771E-04  1.56761E-04  1.42672E-03  1.42672E-03  1.50553E-03  1.50553E-03  1.50553E-03  7.37003E-03  2.27691E-03  7.90875E-03  2.51486E-03
  -21.4000  2.13005E-04  8.27525E-05  1.11276E-04  1.11276E-04  1.11276E-04  3.33828E-04  1.59215E-04  1.46225E-03  1.46225E-03  1.54520E-03  1.54520E-03  1.54520E-03  7.56010E-03  2.33248E-03  8.10693E-03  2.57444E-03
  -21.3000  2.17240E-04  8.43492E-05  1.12685E-04  1.12685E-04  1.12685E-04  3.38056E-04  1.61700E-04  1.49913E-03  1.49913E-03  1.58650E-03  1.58650E-03  1.58650E-03  7.75778E-03  2.38950E-03  8.31307E-03  2.63554E-03
  -21.2000  2.21666E-04  8.59784E-05  1.14157E-04  1.14157E-04  1.14157E-04  3.42471E-04  1.64217E-04  1.53744E-03  1.53744E-03  1.62954E-03  1.62954E-03  1.62954E-03  7.96351E-03  2.44803E-03  8.52765E-03  2.69822E-03
  -21.1000  2.26303E-04  8.76417E-05  1.15695E-04  1.15695E-04  1.15695E-04  3.47086E-04  1.66768E-04  1.57726E-03  1.57726E-03  1.67445E-03  1.67445E-03  1.67445E-03  8.17788E-03  2.50813E-03  8.75127E-03  2.76254E-03
