    Energy      s          Int(s)         px           py           pz           p          Int(p)       dx2-y2        dz2          dyz          dxz          dxy           d          Int(d)       total      Int(total) 
  -30.0000  1.37127E-04  1.00786E-06  7.83950E-05  7.83950E-05  7.83950E-05  2.35185E-04  1.72858E-06  4.86780E-04  4.86780E-04  5.37621E-04  5.37621E-04  5.37621E-04  2.58642E-03  1.90099E-05  2.95874E-03  2.17463E-05
  -29.9000  1.39085E-04  2.03012E-06  7.89401E-05  7.89401E-05  7.89401E-05  2.36820E-04  3.46918E-06  4.93775E-04  4.93775E-04  5.46127E-04  5.46127E-04  5.46127E-04  2.62593E-03  3.83101E-05  3.00184E-03  4.38094E-05
  -29.8000  1.41100E-04  3.06719E-06  7.95000E-05  7.95000E-05  7.95000E-05  2.38500E-04  5.22212E-06  5.00926E-04  5.00926E-04  5.54848E-04  5.54848E-04  5.54848E-04  2.66640E-03  5.79077E-05  3.04600E-03  6.61971E-05
  -29.7000  1.43173E-04  4.11949E-06  8.00750E-05  8.00750E-05  8.00750E-05  2.40225E-04  6.98774E-06  5.08237E-04  5.08237E-04  5.63792E-04  5.63792E-04  5.63792E-04  2.70785E-03  7.78101E-05  3.09125E-03  8.89173E-05
  -29.6000  1.45307E-04  5.18748E-06  8.06659E-05  8.06659E-05  8.06659E-05  2.41998E-04  8.76639E-06  5.15713E-04  5.15713E-04  5.72966E-04  5.72966E-04  5.72966E-04  2.75032E-03  9.80246E-05  3.13763E-03  1.11978E-04
  -29.5000  1.47506E-04  6.27162E-06  8.12735E-05  8.12735E-05  8.12735E-05  2.43821E-04  1.05584E-05  5.23359E-04  5.23359E-04  5.82381E-04  5.82381E-04  5.82381E-04  2.79386E-03  1.18559E-04  3.18519E-03  1.35389E-04
  -29.4000  1.49771E-04  7.37242E-06  8.18982E-05  8.18982E-05  8.18982E-05  2.45695E-04  1.23643E-05  5.31181E-04  5.31181E-04  5.92043E-04  5.92043E-04  5.92043E-04  2.83849E-03  1.39422E-04  3.23396E-03  1.59158E-04
  -29.3000  1.52102E-04  8.49034E-06  8.25397E-05  8.25397E-05  8.25397E-05  2.47619E-04  1.41842E-05  5.39181E-04  5.39181E-04  6.01957E-04  6.01957E-04  6.01957E-04  2.88423E-03  1.60620E-04  3.28395E-03  1.83295E-04
  -29.2000  1.54506E-04  9.62594E-06  8.31999E-05  8.31999E-05  8.31999E-05  2.49600E-04  1.60188E-05  5.47369E-04  5.47369E-04  6.12141E-04  6.12141E-04  6.12141E-04  2.93116E-03  1.82164E-04  3.33527E-03  2.07809E-04
  -29.1000  1.56987E-04  1.07798E-05  8.38792E-05  8.38792E-05  8.38792E-05  2.51638E-04  1.78683E-05  5.55751E-04  5.55751E-04  6.22601E-04  6.22601E-04  6.22601E-04  2.97930E-03  2.04061E-04  3.38793E-03  2.32709E-04
  -29.0000  1.59545E-04  1.19524E-05  8.45783E-05  8.45783E-05  8.45783E-05  2.53735E-04  1.97332E-05  5.64331E-04  5.64331E-04  6.33348E-04  6.33348E-04  6.33348E-04  3.02871E-03  2.26322E-04  3.44199E-03  2.58008E-04
  -28.9000  1.62186E-04  1.31445E-05  8.52978E-05  8.52978E-05  8.52978E-05  2.55893E-04  2.16140E-05  5.73115E-04  5.73115E-04  6.44393E-04  6.44393E-04  6.44393E-04  3.07941E-03  2.48955E-04  3.49749E-03  2.83714E-04
  -28.8000  1.64912E-04  1.43565E-05  8.60385E-05  8.60385E-05  8.60385E-05  2.58115E-04  2.35111E-05  5.82111E-04  5.82111E-04  6.55746E-04  6.55746E-04  6.55746E-04  3.13146E-03  2.71971E-04  3.55449E-03  3.09839E-04
  -28.7000  1.67727E-04  1.55893E-05  8.68012E-05  8.68012E-05  8.68012E-05  2.60404E-04  2.54250E-05  5.91324E-04  5.91324E-04  6.67419E-04  6.67419E-04  6.67419E-04  3.18491E-03  2.95380E-04  3.61304E-03  3.36394E-04
  -28.6000  1.70637E-04  1.68435E-05  8.75870E-05  8.75870E-05  8.75870E-05  2.62761E-04  2.73563E-05  6.00763E-04  6.00763E-04  6.79427E-04  6.79427E-04  6.79427E-04  3.23981E-03  3.19192E-04  3.67321E-03  3.63392E-04
  -28.5000  1.73645E-04  1.81197E-05  8.83970E-05  8.83970E-05  8.83970E-05  2.65191E-04  2.93054E-05  6.10435E-04  6.10435E-04  6.91782E-04  6.91782E-04  6.91782E-04  3.29622E-03  3.43419E-04  3.73505E-03  3.90844E-04
  -28.4000  1.76756E-04  1.94189E-05  8.92321E-05  8.92321E-05  8.92321E-05  2.67696E-04  3.12729E-05  6.20348E-04  6.20348E-04  7.04499E-04  7.04499E-04  7.04499E-04  3.35419E-03  3.68071E-04  3.79865E-03  4.18763E-04
  -28.3000  1.79976E-04  2.07417E-05  9.00935E-05  9.00935E-05  9.00935E-05  2.70280E-04  3.32594E-05  6.30510E-04  6.30510E-04  7.17593E-04  7.17593E-04  7.17593E-04  3.41380E-03  3.93162E-04  3.86406E-03  4.47164E-04
  -28.2000  1.83306E-04  2.20889E-05  9.09814E-05  9.09814E-05  9.09814E-05  2.72944E-04  3.52655E-05  6.40925E-04  6.40925E-04  7.31074E-04  7.31074E-04  7.31074E-04  3.47507E-03  4.18704E-04  3.93132E-03  4.76058E-04
  -28.1000  1.86760E-04  2.34616E-05  9.18993E-05  9.18993E-05  9.18993E-05  2.75698E-04  3.72919E-05  6.51608E-04  6.51608E-04  7.44969E-04  7.44969E-04  7.44969E-04  3.53812E-03  4.44708E-04  4.00058E-03  5.05462E-04
  -28.0000  1.90340E-04  2.48606E-05  9.28470E-05  9.28470E-05  9.28470E-05  2.78541E-04  3.93391E-05  6.62567E-04  6.62567E-04  7.59291E-04  7.59291E-04  7.59291E-04  3.60301E-03  4.71190E-04  4.07189E-03  5.35390E-04
  -27.9000  1.94052E-04  2.62868E-05  9.38259E-05  9.38259E-05  9.38259E-05  2.81478E-04  4.14079E-05  6.73812E-04  6.73812E-04  7.74057E-04  7.74057E-04  7.74057E-04  3.66980E-03  4.98163E-04  4.14533E-03  5.65857E-04
  -27.8000  1.97904E-04  2.77414E-05  9.48375E-05  9.48375E-05  9.48375E-05  2.84512E-04  4.34991E-05  6.85351E-04  6.85351E-04  7.89288E-04  7.89288E-04  7.89288E-04  3.73857E-03  5.25641E-04  4.22098E-03  5.96881E-04
  -27.7000  2.01901E-04  2.92253E-05  9.58833E-05  9.58833E-05  9.58833E-05  2.87650E-04  4.56133E-05  6.97195E-04  6.97195E-04  8.05004E-04  8.05004E-04  8.05004E-04  3.80940E-03  5.53639E-04  4.29895E-03  6.28478E-04
  -27.6000  2.06054E-04  3.07398E-05  9.69650E-05  9.69650E-05  9.69650E-05  2.90895E-04  4.77513E-05  7.09354E-04  7.09354E-04  8.21225E-04  8.21225E-04  8.21225E-04  3.88238E-03  5.82174E-04  4.37933E-03  6.60665E-04
  -27.5000  2.10368E-04  3.22860E-05  9.80843E-05  9.80843E-05  9.80843E-05  2.94253E-04  4.99140E-05  7.21840E-04  7.21840E-04  8.37975E-04  8.37975E-04  8.37975E-04  3.95761E-03  6.11262E-04  4.46223E-03  6.93462E-04
  -27.4000  2.14854E-04  3.38651E-05  9.92426E-05  9.92426E-05  9.92426E-05  2.97728E-04  5.21023E-05  7.34666E-04  7.34666E-04  8.55279E-04  8.55279E-04  8.55279E-04  4.03517E-03  6.40920E-04  4.54775E-03  7.26887E-04
  -27.3000  2.19521E-04  3.54786E-05  1.00442E-04  1.00442E-04  1.00442E-04  3.01327E-04  5.43170E-05  7.47843E-04  7.47843E-04  8.73162E-04  8.73162E-04  8.73162E-04  4.11517E-03  6.71166E-04  4.63602E-03  7.60961E-04
  -27.2000  2.24380E-04  3.71277E-05  1.01686E-04  1.01686E-04  1.01686E-04  3.05057E-04  5.65591E-05  7.61386E-04  7.61386E-04  8.91653E-04  8.91653E-04  8.91653E-04  4.19773E-03  7.02019E-04  4.72717E-03  7.95705E-04
  -27.1000  2.29437E-04  3.88141E-05  1.02973E-04  1.02973E-04  1.02973E-04  3.08920E-04  5.88296E-05  7.75300E-04  7.75300E-04  9.10771E-04  9.10771E-04  9.10771E-04  4.28291E-03  7.33497E-04  4.82127E-03  8.31141E-04
  -27.0000  2.34713E-04  4.05392E-05  1.04310E-04  1.04310E-04  1.04310E-04  3.12930E-04  6.11296E-05  7.89611E-04  7.89611E-04  9.30563E-04  9.30563E-04  9.30563E-04  4.37091E-03  7.65623E-04  4.91855E-03  8.67292E-04
  -26.9000  2.40218E-04  4.23048E-05  1.05698E-04  1.05698E-04  1.05698E-04  3.17094E-04  6.34602E-05  8.04331E-04  8.04331E-04  9.51058E-04  9.51058E-04  9.51058E-04  4.46184E-03  7.98417E-04  5.01915E-03  9.04182E-04
  -26.8000  2.45973E-04  4.41126E-05  1.07141E-04  1.07141E-04  1.07141E-04  3.21423E-04  6.58226E-05  8.19475E-04  8.19475E-04  9.72296E-04  9.72296E-04  9.72296E-04  4.55584E-03  8.31902E-04  5.12324E-03  9.41837E-04
  -26.7000  2.51982E-04  4.59647E-05  1.08640E-04  1.08640E-04  1.08640E-04  3.25920E-04  6.82181E-05  8.35059E-04  8.35059E-04  9.94307E-04  9.94307E-04  9.94307E-04  4.65304E-03  8.66101E-04  5.23094E-03  9.80284E-04
  -26.6000  2.58266E-04  4.78629E-05  1.10199E-04  1.10199E-04  1.10199E-04  3.30596E-04  7.06479E-05  8.51100E-04  8.51100E-04  1.01713E-03  1.01713E-03  1.01713E-03  4.75359E-03  9.01039E-04  5.34245E-03  1.01955E-03
  -26.5000  2.64841E-04  4.98094E-05  1.11820E-04  1.11820E-04  1.11820E-04  3.35461E-04  7.31135E-05  8.67616E-04  8.67616E-04  1.04081E-03  1.04081E-03  1.04081E-03  4.85767E-03  9.36742E-04  5.45797E-03  1.05967E-03
  -26.4000  2.71727E-04  5.18066E-05  1.13509E-04  1.13509E-04  1.13509E-04  3.40526E-04  7.56163E-05  8.84625E-04  8.84625E-04  1.06540E-03  1.06540E-03  1.06540E-03  4.96544E-03  9.73238E-04  5.57769E-03  1.10066E-03
  -26.3000  2.78945E-04  5.38568E-05  1.15267E-04  1.15267E-04  1.15267E-04  3.45802E-04  7.81579E-05  9.02149E-04  9.02149E-04  1.09093E-03  1.09093E-03  1.09093E-03  5.07710E-03  1.01055E-03  5.70185E-03  1.14257E-03
  -26.2000  2.86516E-04  5.59626E-05  1.17101E-04  1.17101E-04  1.17101E-04  3.51304E-04  8.07400E-05  9.20208E-04  9.20208E-04  1.11748E-03  1.11748E-03  1.11748E-03  5.19285E-03  1.04872E-03  5.83067E-03  1.18542E-03
  -26.1000  2.94453E-04  5.81268E-05  1.19011E-04  1.19011E-04  1.19011E-04  3.57034E-04  8.33641E-05  9.38814E-04  9.38814E-04  1.14506E-03  1.14506E-03  1.14506E-03  5.31282E-03  1.08777E-03  5.96430E-03  1.22926E-03
  -26.0000  3.02800E-04  6.03524E-05  1.21007E-04  1.21007E-04  1.21007E-04  3.63021E-04  8.60323E-05  9.58007E-04  9.58007E-04  1.17378E-03  1.17378E-03  1.17378E-03  5.43735E-03  1.12773E-03  6.10317E-03  1.27412E-03
  -25.9000  3.11585E-04  6.26425E-05  1.23093E-04  1.23093E-04  1.23093E-04  3.69279E-04  8.87464E-05  9.77807E-04  9.77807E-04  1.20369E-03  1.20369E-03  1.20369E-03  5.56669E-03  1.16865E-03  6.24755E-03  1.32004E-03
  -25.8000  3.20836E-04  6.50006E-05  1.25275E-04  1.25275E-04  1.25275E-04  3.75824E-04  9.15087E-05  9.98238E-04  9.98238E-04  1.23486E-03  1.23486E-03  1.23486E-03  5.70106E-03  1.21055E-03  6.39772E-03  1.36706E-03
  -25.7000  3.30590E-04  6.74304E-05  1.27559E-04  1.27559E-04  1.27559E-04  3.82676E-04  9.43213E-05  1.01933E-03  1.01933E-03  1.26737E-03  1.26737E-03  1.26737E-03  5.84077E-03  1.25348E-03  6.55403E-03  1.41523E-03
  -25.6000  3.40890E-04  6.99359E-05  1.29953E-04  1.29953E-04  1.29953E-04  3.89858E-04  9.71867E-05  1.04110E-03  1.04110E-03  1.30130E-03  1.30130E-03  1.30130E-03  5.98612E-03  1.29748E-03  6.71687E-03  1.46460E-03
  -25.5000  3.51770E-04  7.25213E-05  1.32463E-04  1.32463E-04  1.32463E-04  3.97388E-04  1.00107E-04  1.06360E-03  1.06360E-03  1.33674E-03  1.33674E-03  1.33674E-03  6.13742E-03  1.34258E-03  6.88658E-03  1.51521E-03
  -25.4000  3.63276E-04  7.51913E-05  1.35097E-04  1.35097E-04  1.35097E-04  4.05290E-04  1.03086E-04  1.08684E-03  1.08684E-03  1.37378E-03  1.37378E-03  1.37378E-03  6.29503E-03  1.38885E-03  7.06360E-03  1.56713E-03
  -25.3000  3.75460E-04  7.79509E-05  1.37863E-04  1.37863E-04  1.37863E-04  4.13589E-04  1.06126E-04  1.11086E-03  1.11086E-03  1.41253E-03  1.41253E-03  1.41253E-03  6.45933E-03  1.43633E-03  7.24838E-03  1.62040E-03
  -25.2000  3.88363E-04  8.08053E-05  1.40769E-04  1.40769E-04  1.40769E-04  4.22307E-04  1.09230E-04  1.13569E-03  1.13569E-03  1.45308E-03  1.45308E-03  1.45308E-03  6.63064E-03  1.48506E-03  7.44131E-03  1.67510E-03
  -25.1000  4.02067E-04  8.37605E-05  1.43829E-04  1.43829E-04  1.43829E-04  4.31487E-04  1.12401E-04  1.16138E-03  1.16138E-03  1.49559E-03  1.49559E-03  1.49559E-03  6.80953E-03  1.53511E-03  7.64308E-03  1.73127E-03
  -25.0000  4.16641E-04  8.68227E-05  1.47055E-04  1.47055E-04  1.47055E-04  4.41164E-04  1.15644E-04  1.18797E-03  1.18797E-03  1.54018E-03  1.54018E-03  1.54018E-03  6.99648E-03  1.58653E-03  7.85428E-03  1.78900E-03
  -24.9000  4.32156E-04  8.99990E-05  1.50457E-04  1.50457E-04  1.50457E-04  4.51372E-04  1.18961E-04  1.21550E-03  1.21550E-03  1.58700E-03  1.58700E-03  1.58700E-03  7.19201E-03  1.63939E-03  8.07554E-03  1.84835E-03
  -24.8000  4.48695E-04  9.32969E-05  1.54051E-04  1.54051E-04  1.54051E-04  4.62153E-04  1.22358E-04  1.24401E-03  1.24401E-03  1.63622E-03  1.63622E-03  1.63622E-03  7.39667E-03  1.69376E-03  8.30752E-03  1.90941E-03
  -24.7000  4.66357E-04  9.67245E-05  1.57851E-04  1.57851E-04  1.57851E-04  4.73553E-04  1.25839E-04  1.27355E-03  1.27355E-03  1.68800E-03  1.68800E-03  1.68800E-03  7.61111E-03  1.74970E-03  8.55102E-03  1.97226E-03
  -24.6000  4.85248E-04  1.00291E-04  1.61875E-04  1.61875E-04  1.61875E-04  4.85625E-04  1.29408E-04  1.30418E-03  1.30418E-03  1.74255E-03  1.74255E-03  1.74255E-03  7.83601E-03  1.80729E-03  8.80688E-03  2.03699E-03
  -24.5000  5.05486E-04  1.04006E-04  1.66141E-04  1.66141E-04  1.66141E-04  4.98424E-04  1.33071E-04  1.33593E-03  1.33593E-03  1.80008E-03  1.80008E-03  1.80008E-03  8.07211E-03  1.86662E-03  9.07602E-03  2.10370E-03
  -24.4000  5.27221E-04  1.07881E-04  1.70674E-04  1.70674E-04  1.70674E-04  5.12022E-04  1.36835E-04  1.36888E-03  1.36888E-03  1.86084E-03  1.86084E-03  1.86084E-03  8.32028E-03  1.92777E-03  9.35952E-03  2.17249E-03
  -24.3000  5.50556E-04  1.11928E-04  1.75487E-04  1.75487E-04  1.75487E-04  5.26461E-04  1.40704E-04  1.40306E-03  1.40306E-03  1.92504E-03  1.92504E-03  1.92504E-03  8.58122E-03  1.99085E-03  9.65824E-03  2.24348E-03
  -24.2000  5.75707E-04  1.16159E-04  1.80614E-04  1.80614E-04  1.80614E-04  5.41842E-04  1.44687E-04  1.43856E-03  1.43856E-03  1.99301E-03  1.99301E-03  1.99301E-03  8.85616E-03  2.05594E-03  9.97371E-03  2.31678E-03
  -24.1000  6.02862E-04  1.20590E-04  1.86083E-04  1.86083E-04  1.86083E-04  5.58249E-04  1.48790E-04  1.47545E-03  1.47545E-03  2.06509E-03  2.06509E-03  2.06509E-03  9.14618E-03  2.12316E-03  1.03073E-02  2.39254E-03
  -24.0000  6.32246E-04  1.25237E-04  1.91927E-04  1.91927E-04  1.91927E-04  5.75781E-04  1.53021E-04  1.51380E-03  1.51380E-03  2.14164E-03  2.14164E-03  2.14164E-03  9.45250E-03  2.19264E-03  1.06605E-02  2.47089E-03
  -23.9000  6.64108E-04  1.30118E-04  1.98181E-04  1.98181E-04  1.98181E-04  5.94543E-04  1.57391E-04  1.55368E-03  1.55368E-03  2.22304E-03  2.22304E-03  2.22304E-03  9.77648E-03  2.26449E-03  1.10351E-02  2.55200E-03
  -23.8000  6.98738E-04  1.35254E-04  2.04886E-04  2.04886E-04  2.04886E-04  6.14658E-04  1.61909E-04  1.59519E-03  1.59519E-03  2.30975E-03  2.30975E-03  2.30975E-03  1.01196E-02  2.33887E-03  1.14330E-02  2.63603E-03
  -23.7000  7.36466E-04  1.40667E-04  2.12087E-04  2.12087E-04  2.12087E-04  6.36261E-04  1.66585E-04  1.63840E-03  1.63840E-03  2.40228E-03  2.40228E-03  2.40228E-03  1.04836E-02  2.41592E-03  1.18564E-02  2.72317E-03
  -23.6000  7.77683E-04  1.46383E-04  2.19837E-04  2.19837E-04  2.19837E-04  6.59510E-04  1.71433E-04  1.68341E-03  1.68341E-03  2.50120E-03  2.50120E-03  2.50120E-03  1.08704E-02  2.49582E-03  1.23076E-02  2.81363E-03
  -23.5000  8.22803E-04  1.52430E-04  2.28189E-04  2.28189E-04  2.28189E-04  6.84566E-04  1.76464E-04  1.73031E-03  1.73031E-03  2.60712E-03  2.60712E-03  2.60712E-03  1.12820E-02  2.57874E-03  1.27893E-02  2.90763E-03
  -23.4000  8.72387E-04  1.58842E-04  2.37217E-04  2.37217E-04  2.37217E-04  7.11652E-04  1.81695E-04  1.77922E-03  1.77922E-03  2.72080E-03  2.72080E-03  2.72080E-03  1.17208E-02  2.66489E-03  1.33049E-02  3.00542E-03
  -23.3000  9.27091E-04  1.65656E-04  2.47007E-04  2.47007E-04  2.47007E-04  7.41021E-04  1.87141E-04  1.83027E-03  1.83027E-03  2.84314E-03  2.84314E-03  2.84314E-03  1.21900E-02  2.75448E-03  1.38581E-02  3.10728E-03
  -23.2000  9.87617E-04  1.72915E-04  2.57642E-04  2.57642E-04  2.57642E-04  7.72927E-04  1.92822E-04  1.88357E-03  1.88357E-03  2.97508E-03  2.97508E-03  2.97508E-03  1.26924E-02  2.84777E-03  1.44529E-02  3.21350E-03
  -23.1000  1.05483E-03  1.80668E-04  2.69227E-04  2.69227E-04  2.69227E-04  8.07681E-04  1.98758E-04  1.93927E-03  1.93927E-03  3.11772E-03  3.11772E-03  3.11772E-03  1.32317E-02  2.94502E-03  1.50942E-02  3.32444E-03
  -23.0000  1.12977E-03  1.88971E-04  2.81880E-04  2.81880E-04  2.81880E-04  8.45640E-04  2.04974E-04  1.99750E-03  1.99750E-03  3.27233E-03  3.27233E-03  3.27233E-03  1.38120E-02  3.04654E-03  1.57874E-02  3.44048E-03
  -22.9000  1.21367E-03  1.97892E-04  2.95741E-04  2.95741E-04  2.95741E-04  8.87224E-04  2.11495E-04  2.05843E-03  2.05843E-03  3.44041E-03  3.44041E-03  3.44041E-03  1.44381E-02  3.15265E-03  1.65390E-02  3.56204E-03
  -22.8000  1.30803E-03  2.07506E-04  3.10975E-04  3.10975E-04  3.10975E-04  9.32924E-04  2.18352E-04  2.12222E-03  2.12222E-03  3.62368E-03  3.62368E-03  3.62368E-03  1.51155E-02  3.26375E-03  1.73564E-02  3.68961E-03
  -22.7000  1.41459E-03  2.17903E-04  3.27759E-04  3.27759E-04  3.27759E-04  9.83277E-04  2.25578E-04  2.18904E-03  2.18904E-03  3.82408E-03  3.82408E-03  3.82408E-03  1.58503E-02  3.38025E-03  1.82482E-02  3.82373E-03
  -22.6000  1.53565E-03  2.29189E-04  3.46330E-04  3.46330E-04  3.46330E-04  1.03899E-03  2.33215E-04  2.25909E-03  2.25909E-03  4.04405E-03  4.04405E-03  4.04405E-03  1.66503E-02  3.50263E-03  1.92250E-02  3.96503E-03
  -22.5000  1.67404E-03  2.41493E-04  3.66963E-04  3.66963E-04  3.66963E-04  1.10089E-03  2.41306E-04  2.33261E-03  2.33261E-03  4.28647E-03  4.28647E-03  4.28647E-03  1.75246E-02  3.63143E-03  2.02996E-02  4.11423E-03
  -22.4000  1.83321E-03  2.54967E-04  3.89977E-04  3.89977E-04  3.89977E-04  1.16993E-03  2.49905E-04  2.40981E-03  2.40981E-03  4.55469E-03  4.55469E-03  4.55469E-03  1.84837E-02  3.76728E-03  2.14868E-02  4.27215E-03
  -22.3000  2.01760E-03  2.69796E-04  4.15768E-04  4.15768E-04  4.15768E-04  1.24730E-03  2.59073E-04  2.49095E-03  2.49095E-03  4.85281E-03  4.85281E-03  4.85281E-03  1.95404E-02  3.91090E-03  2.28053E-02  4.43977E-03
  -22.2000  2.23292E-03  2.86208E-04  4.44816E-04  4.44816E-04  4.44816E-04  1.33445E-03  2.68881E-04  2.57631E-03  2.57631E-03  5.18580E-03  5.18580E-03  5.18580E-03  2.07100E-02  4.06312E-03  2.42774E-02  4.61820E-03
  -22.1000  2.48641E-03  3.04483E-04  4.77690E-04  4.77690E-04  4.77690E-04  1.43307E-03  2.79414E-04  2.66617E-03  2.66617E-03  5.55959E-03  5.55959E-03  5.55959E-03  2.20111E-02  4.22490E-03  2.59306E-02  4.80879E-03
  -22.0000  2.78771E-03  3.24972E-04  5.15108E-04  5.15108E-04  5.15108E-04  1.54532E-03  2.90771E-04  2.76086E-03  2.76086E-03  5.98161E-03  5.98161E-03  5.98161E-03  2.34665E-02  4.39737E-03  2.77996E-02  5.01311E-03
  -21.9000  3.14931E-03  3.48119E-04  5.57918E-04  5.57918E-04  5.57918E-04  1.67376E-03  3.03073E-04  2.86069E-03  2.86069E-03  6.46069E-03  6.46069E-03  6.46069E-03  2.51035E-02  4.58188E-03  2.99265E-02  5.23307E-03
  -21.8000  3.58915E-03  3.74499E-04  6.07295E-04  6.07295E-04  6.07295E-04  1.82189E-03  3.16464E-04  2.96611E-03  2.96611E-03  7.00881E-03  7.00881E-03  7.00881E-03  2.69587E-02  4.78002E-03  3.23697E-02  5.47098E-03
  -21.7000  4.13151E-03  4.04865E-04  6.64663E-04  6.64663E-04  6.64663E-04  1.99399E-03  3.31119E-04  3.07752E-03  3.07752E-03  7.64061E-03  7.64061E-03  7.64061E-03  2.90769E-02  4.99373E-03  3.52024E-02  5.72972E-03
  -21.6000  4.81093E-03  4.40224E-04  7.31860E-04  7.31860E-04  7.31860E-04  2.19558E-03  3.47257E-04  3.19540E-03  3.19540E-03  8.37495E-03  8.37495E-03  8.37495E-03  3.15156E-02  5.22537E-03  3.85222E-02  6.01285E-03
  -21.5000  5.67759E-03  4.81954E-04  8.11267E-04  8.11267E-04  8.11267E-04  2.43380E-03  3.65145E-04  3.32022E-03  3.32022E-03  9.23626E-03  9.23626E-03  9.23626E-03  3.43492E-02  5.47783E-03  4.24606E-02  6.32493E-03
  -21.4000  6.80701E-03  5.31985E-04  9.06043E-04  9.06043E-04  9.06043E-04  2.71813E-03  3.85123E-04  3.45253E-03  3.45253E-03  1.02569E-02  1.02569E-02  1.02569E-02  3.76757E-02  5.75474E-03  4.72009E-02  6.67185E-03
  -21.3000  8.31852E-03  5.93125E-04  1.02054E-03  1.02054E-03  1.02054E-03  3.06163E-03  4.07625E-04  3.59301E-03  3.59301E-03  1.14812E-02  1.14812E-02  1.14812E-02  4.16296E-02  6.06071E-03  5.30098E-02  7.06146E-03
  -21.2000  1.04063E-02  6.69610E-04  1.16069E-03  1.16069E-03  1.16069E-03  3.48208E-03  4.33218E-04  3.74230E-03  3.74230E-03  1.29697E-02  1.29697E-02  1.29697E-02  4.63936E-02  6.40170E-03  6.02820E-02  7.50453E-03
  -21.1000  1.34051E-02  7.68136E-04  1.33479E-03  1.33479E-03  1.33479E-03  4.00438E-03  4.62650E-04  3.90118E-03  3.90118E-03  1.48068E-02  1.48068E-02  1.48068E-02  5.22229E-02  6.78553E-03  6.96324E-02  8.01632E-03
